3997.60762,-0.00001
3995.67920,-0.00001
3993.75079,-0.00001
3991.82237,-0.00001
3989.89395,-0.00001
3987.96554,-0.00001
3986.03712,-0.00001
3984.10870,-0.00001
3982.18029,-0.00000
3980.25187,0.00000
3978.32345,0.00001
3976.39504,0.00001
3974.46662,0.00001
3972.53820,0.00001
3970.60979,0.00001
3968.68137,-0.00000
3966.75295,-0.00001
3964.82454,-0.00001
3962.89612,-0.00001
3960.96770,-0.00000
3959.03929,-0.00000
3957.11087,-0.00001
3955.18245,-0.00001
3953.25404,-0.00001
3951.32562,0.00000
3949.39720,0.00001
3947.46879,0.00003
3945.54037,0.00004
3943.61196,0.00003
3941.68354,-0.00000
3939.75512,-0.00003
3937.82671,-0.00004
3935.89829,-0.00003
3933.96987,-0.00001
3932.04146,0.00001
3930.11304,0.00002
3928.18462,0.00002
3926.25621,0.00000
3924.32779,-0.00002
3922.39937,-0.00000
3920.47096,0.00003
3918.54254,0.00004
3916.61412,0.00002
3914.68571,-0.00001
3912.75729,-0.00006
3910.82887,-0.00011
3908.90046,-0.00010
3906.97204,-0.00003
3905.04362,0.00006
3903.11521,0.00013
3901.18679,0.00013
3899.25837,0.00007
3897.32996,-0.00001
3895.40154,-0.00006
3893.47312,-0.00008
3891.54471,-0.00006
3889.61629,-0.00003
3887.68787,-0.00000
3885.75946,0.00002
3883.83104,0.00004
3881.90262,0.00004
3879.97421,0.00001
3878.04579,-0.00003
3876.11737,-0.00005
3874.18896,-0.00004
3872.26054,-0.00001
3870.33212,0.00003
3868.40371,0.00007
3866.47529,0.00006
3864.54687,0.00002
3862.61846,-0.00004
3860.69004,-0.00010
3858.76162,-0.00009
3856.83321,-0.00000
3854.90479,0.00009
3852.97637,0.00013
3851.04796,0.00010
3849.11954,-0.00001
3847.19112,-0.00013
3845.26271,-0.00019
3843.33429,-0.00010
3841.40588,0.00003
3839.47746,0.00012
3837.54904,0.00014
3835.62063,0.00010
3833.69221,0.00002
3831.76379,-0.00005
3829.83538,-0.00011
3827.90696,-0.00011
3825.97854,-0.00007
3824.05013,-0.00000
3822.12171,0.00006
3820.19329,0.00012
3818.26488,0.00013
3816.33646,0.00007
3814.40804,-0.00003
3812.47963,-0.00011
3810.55121,-0.00013
3808.62279,-0.00011
3806.69438,-0.00005
3804.76596,0.00005
3802.83754,0.00012
3800.90913,0.00013
3798.98071,0.00010
3797.05229,0.00005
3795.12388,-0.00002
3793.19546,-0.00008
3791.26704,-0.00010
3789.33863,-0.00008
3787.41021,-0.00005
3785.48179,-0.00000
3783.55338,0.00004
3781.62496,0.00005
3779.69654,0.00004
3777.76813,-0.00001
3775.83971,-0.00003
3773.91129,-0.00004
3771.98288,-0.00002
3770.05446,0.00001
3768.12604,0.00003
3766.19763,0.00001
3764.26921,-0.00002
3762.34079,-0.00004
3760.41238,-0.00005
3758.48396,-0.00007
3756.55554,-0.00005
3754.62713,0.00001
3752.69871,0.00005
3750.77029,0.00008
3748.84188,0.00012
3746.91346,0.00011
3744.98504,0.00002
3743.05663,-0.00010
3741.12821,-0.00012
3739.19980,-0.00006
3737.27138,0.00002
3735.34296,0.00008
3733.41455,0.00009
3731.48613,0.00005
3729.55771,-0.00002
3727.62930,-0.00005
3725.70088,-0.00002
3723.77246,0.00003
3721.84405,0.00003
3719.91563,-0.00004
3717.98721,-0.00011
3716.05880,-0.00009
3714.13038,-0.00000
3712.20196,0.00007
3710.27355,0.00010
3708.34513,0.00009
3706.41671,0.00004
3704.48830,-0.00001
3702.55988,-0.00002
3700.63146,-0.00001
3698.70305,-0.00002
3696.77463,-0.00005
3694.84621,-0.00004
3692.91780,0.00003
3690.98938,0.00010
3689.06096,0.00014
3687.13255,0.00010
3685.20413,-0.00000
3683.27571,-0.00011
3681.34730,-0.00013
3679.41888,-0.00004
3677.49046,0.00006
3675.56205,0.00015
3673.63363,0.00020
3671.70521,0.00018
3669.77680,0.00010
3667.84838,0.00001
3665.91996,-0.00004
3663.99155,-0.00007
3662.06313,-0.00009
3660.13471,-0.00007
3658.20630,-0.00007
3656.27788,-0.00007
3654.34946,0.00001
3652.42105,0.00013
3650.49263,0.00020
3648.56421,0.00021
3646.63580,0.00016
3644.70738,0.00005
3642.77896,-0.00008
3640.85055,-0.00015
3638.92213,-0.00012
3636.99371,-0.00009
3635.06530,-0.00003
3633.13688,0.00006
3631.20847,0.00011
3629.28005,0.00010
3627.35163,0.00005
3625.42322,-0.00001
3623.49480,-0.00004
3621.56638,-0.00004
3619.63797,0.00001
3617.70955,0.00006
3615.78113,0.00005
3613.85272,0.00004
3611.92430,0.00003
3609.99588,0.00003
3608.06747,0.00002
3606.13905,-0.00001
3604.21063,-0.00003
3602.28222,-0.00004
3600.35380,-0.00002
3598.42538,0.00002
3596.49697,0.00002
3594.56855,0.00000
3592.64013,0.00002
3590.71172,0.00005
3588.78330,0.00007
3586.85488,0.00008
3584.92647,0.00007
3582.99805,0.00003
3581.06963,-0.00003
3579.14122,-0.00005
3577.21280,-0.00006
3575.28438,-0.00008
3573.35597,-0.00007
3571.42755,-0.00000
3569.49913,0.00008
3567.57072,0.00013
3565.64230,0.00015
3563.71388,0.00011
3561.78547,0.00001
3559.85705,-0.00007
3557.92863,-0.00008
3556.00022,-0.00006
3554.07180,-0.00004
3552.14338,-0.00001
3550.21497,0.00003
3548.28655,0.00005
3546.35813,0.00005
3544.42972,0.00004
3542.50130,0.00001
3540.57288,-0.00002
3538.64447,-0.00005
3536.71605,-0.00005
3534.78763,-0.00003
3532.85922,-0.00000
3530.93080,0.00002
3529.00239,0.00003
3527.07397,0.00004
3525.14555,0.00004
3523.21714,0.00001
3521.28872,-0.00001
3519.36030,-0.00003
3517.43189,-0.00003
3515.50347,-0.00002
3513.57505,-0.00001
3511.64664,-0.00000
3509.71822,0.00001
3507.78980,0.00002
3505.86139,0.00002
3503.93297,0.00001
3502.00455,-0.00000
3500.07614,-0.00001
3498.14772,-0.00003
3496.21930,-0.00004
3494.29089,-0.00004
3492.36247,-0.00002
3490.43405,-0.00001
3488.50564,-0.00000
3486.57722,0.00001
3484.64880,0.00000
3482.72039,-0.00001
3480.79197,-0.00002
3478.86355,-0.00001
3476.93514,-0.00001
3475.00672,-0.00000
3473.07830,-0.00001
3471.14989,-0.00002
3469.22147,-0.00004
3467.29305,-0.00004
3465.36464,-0.00004
3463.43622,-0.00002
3461.50780,-0.00001
3459.57939,-0.00001
3457.65097,-0.00001
3455.72255,-0.00002
3453.79414,-0.00002
3451.86572,-0.00001
3449.93730,-0.00001
3448.00889,-0.00001
3446.08047,0.00000
3444.15205,0.00001
3442.22364,0.00001
3440.29522,-0.00001
3438.36680,-0.00003
3436.43839,-0.00004
3434.50997,-0.00004
3432.58155,-0.00004
3430.65314,-0.00003
3428.72472,-0.00001
3426.79631,-0.00001
3424.86789,-0.00001
3422.93947,-0.00000
3421.01106,0.00001
3419.08264,0.00001
3417.15422,0.00001
3415.22581,-0.00001
3413.29739,-0.00002
3411.36897,-0.00003
3409.44056,-0.00002
3407.51214,-0.00001
3405.58372,0.00000
3403.65531,-0.00000
3401.72689,-0.00001
3399.79847,-0.00001
3397.87006,0.00000
3395.94164,0.00001
3394.01322,0.00001
3392.08481,0.00001
3390.15639,0.00001
3388.22797,0.00001
3386.29956,0.00003
3384.37114,0.00004
3382.44272,0.00005
3380.51431,0.00004
3378.58589,0.00003
3376.65747,0.00002
3374.72906,0.00001
3372.80064,0.00001
3370.87222,0.00000
3368.94381,0.00001
3367.01539,0.00001
3365.08697,0.00001
3363.15856,0.00002
3361.23014,0.00002
3359.30172,0.00002
3357.37331,0.00002
3355.44489,0.00001
3353.51647,0.00001
3351.58806,0.00001
3349.65964,0.00001
3347.73122,0.00002
3345.80281,0.00002
3343.87439,0.00004
3341.94597,0.00005
3340.01756,0.00006
3338.08914,0.00007
3336.16072,0.00007
3334.23231,0.00007
3332.30389,0.00007
3330.37547,0.00007
3328.44706,0.00007
3326.51864,0.00008
3324.59023,0.00008
3322.66181,0.00007
3320.73339,0.00005
3318.80498,0.00003
3316.87656,0.00001
3314.94814,-0.00000
3313.01973,-0.00001
3311.09131,0.00000
3309.16289,0.00001
3307.23448,-0.00000
3305.30606,-0.00003
3303.37764,-0.00008
3301.44923,-0.00013
3299.52081,-0.00016
3297.59239,-0.00017
3295.66398,-0.00016
3293.73556,-0.00016
3291.80714,-0.00018
3289.87873,-0.00021
3287.95031,-0.00024
3286.02189,-0.00026
3284.09348,-0.00028
3282.16506,-0.00029
3280.23664,-0.00030
3278.30823,-0.00031
3276.37981,-0.00029
3274.45139,-0.00026
3272.52298,-0.00022
3270.59456,-0.00019
3268.66614,-0.00017
3266.73773,-0.00017
3264.80931,-0.00017
3262.88089,-0.00016
3260.95248,-0.00013
3259.02406,-0.00009
3257.09564,-0.00004
3255.16723,-0.00001
3253.23881,0.00001
3251.31039,0.00004
3249.38198,0.00006
3247.45356,0.00008
3245.52514,0.00009
3243.59673,0.00008
3241.66831,0.00007
3239.73989,0.00006
3237.81148,0.00007
3235.88306,0.00009
3233.95464,0.00011
3232.02623,0.00011
3230.09781,0.00010
3228.16939,0.00008
3226.24098,0.00006
3224.31256,0.00004
3222.38415,0.00003
3220.45573,0.00003
3218.52731,0.00003
3216.59890,0.00002
3214.67048,0.00002
3212.74206,0.00001
3210.81365,-0.00000
3208.88523,-0.00001
3206.95681,-0.00002
3205.02840,-0.00002
3203.09998,-0.00003
3201.17156,-0.00003
3199.24315,-0.00004
3197.31473,-0.00004
3195.38631,-0.00004
3193.45790,-0.00003
3191.52948,-0.00003
3189.60106,-0.00004
3187.67265,-0.00004
3185.74423,-0.00004
3183.81581,-0.00003
3181.88740,-0.00002
3179.95898,-0.00001
3178.03056,0.00000
3176.10215,0.00000
3174.17373,-0.00001
3172.24531,-0.00001
3170.31690,-0.00002
3168.38848,-0.00001
3166.46006,0.00001
3164.53165,0.00002
3162.60323,0.00002
3160.67481,0.00002
3158.74640,0.00002
3156.81798,0.00003
3154.88956,0.00004
3152.96115,0.00004
3151.03273,0.00004
3149.10431,0.00004
3147.17590,0.00003
3145.24748,0.00003
3143.31906,0.00004
3141.39065,0.00005
3139.46223,0.00005
3137.53381,0.00005
3135.60540,0.00006
3133.67698,0.00006
3131.74856,0.00006
3129.82015,0.00005
3127.89173,0.00004
3125.96331,0.00004
3124.03490,0.00004
3122.10648,0.00006
3120.17807,0.00008
3118.24965,0.00010
3116.32123,0.00010
3114.39282,0.00009
3112.46440,0.00007
3110.53598,0.00005
3108.60757,0.00004
3106.67915,0.00004
3104.75073,0.00005
3102.82232,0.00006
3100.89390,0.00006
3098.96548,0.00007
3097.03707,0.00006
3095.10865,0.00004
3093.18023,0.00002
3091.25182,-0.00000
3089.32340,-0.00002
3087.39498,-0.00002
3085.46657,-0.00002
3083.53815,-0.00000
3081.60973,0.00001
3079.68132,0.00002
3077.75290,0.00001
3075.82448,-0.00002
3073.89607,-0.00005
3071.96765,-0.00007
3070.03923,-0.00008
3068.11082,-0.00007
3066.18240,-0.00008
3064.25398,-0.00009
3062.32557,-0.00010
3060.39715,-0.00011
3058.46873,-0.00011
3056.54032,-0.00009
3054.61190,-0.00006
3052.68348,-0.00004
3050.75507,-0.00003
3048.82665,-0.00001
3046.89823,0.00000
3044.96982,0.00002
3043.04140,0.00002
3041.11298,0.00002
3039.18457,0.00002
3037.25615,0.00002
3035.32773,0.00001
3033.39932,-0.00000
3031.47090,-0.00002
3029.54248,-0.00003
3027.61407,-0.00003
3025.68565,-0.00002
3023.75723,0.00001
3021.82882,0.00005
3019.90040,0.00007
3017.97199,0.00008
3016.04357,0.00007
3014.11515,0.00006
3012.18674,0.00004
3010.25832,0.00003
3008.32990,0.00003
3006.40149,0.00004
3004.47307,0.00007
3002.54465,0.00011
3000.61624,0.00016
2998.68782,0.00020
2996.75940,0.00023
2994.83099,0.00026
2992.90257,0.00026
2990.97415,0.00025
2989.04574,0.00024
2987.11732,0.00021
2985.18890,0.00019
2983.26049,0.00018
2981.33207,0.00017
2979.40365,0.00017
2977.47524,0.00017
2975.54682,0.00016
2973.61840,0.00014
2971.68999,0.00009
2969.76157,0.00000
2967.83315,-0.00012
2965.90474,-0.00028
2963.97632,-0.00044
2962.04790,-0.00057
2960.11949,-0.00065
2958.19107,-0.00064
2956.26265,-0.00054
2954.33424,-0.00035
2952.40582,-0.00010
2950.47740,0.00017
2948.54899,0.00041
2946.62057,0.00057
2944.69215,0.00062
2942.76374,0.00055
2940.83532,0.00039
2938.90690,0.00018
2936.97849,-0.00003
2935.05007,-0.00022
2933.12165,-0.00036
2931.19324,-0.00048
2929.26482,-0.00058
2927.33640,-0.00067
2925.40799,-0.00074
2923.47957,-0.00074
2921.55115,-0.00067
2919.62274,-0.00052
2917.69432,-0.00032
2915.76590,-0.00011
2913.83749,0.00009
2911.90907,0.00022
2909.98066,0.00029
2908.05224,0.00031
2906.12382,0.00028
2904.19541,0.00023
2902.26699,0.00019
2900.33857,0.00015
2898.41016,0.00014
2896.48174,0.00015
2894.55332,0.00018
2892.62491,0.00021
2890.69649,0.00024
2888.76807,0.00027
2886.83966,0.00029
2884.91124,0.00031
2882.98282,0.00030
2881.05441,0.00026
2879.12599,0.00016
2877.19757,-0.00000
2875.26916,-0.00020
2873.34074,-0.00038
2871.41232,-0.00047
2869.48391,-0.00043
2867.55549,-0.00026
2865.62707,-0.00000
2863.69866,0.00023
2861.77024,0.00034
2859.84182,0.00027
2857.91341,0.00003
2855.98499,-0.00029
2854.05657,-0.00058
2852.12816,-0.00070
2850.19974,-0.00062
2848.27132,-0.00038
2846.34291,-0.00008
2844.41449,0.00019
2842.48607,0.00036
2840.55766,0.00040
2838.62924,0.00037
2836.70082,0.00030
2834.77241,0.00023
2832.84399,0.00016
2830.91557,0.00011
2828.98716,0.00007
2827.05874,0.00004
2825.13032,0.00002
2823.20191,0.00002
2821.27349,0.00001
2819.34507,0.00002
2817.41666,0.00002
2815.48824,0.00003
2813.55982,0.00002
2811.63141,0.00002
2809.70299,0.00002
2807.77458,0.00001
2805.84616,0.00001
2803.91774,0.00001
2801.98933,0.00001
2800.06091,0.00001
2798.13249,0.00001
2796.20408,0.00001
2794.27566,0.00001
2792.34724,0.00000
2790.41883,-0.00000
2788.49041,-0.00000
2786.56199,0.00000
2784.63358,0.00001
2782.70516,0.00001
2780.77674,0.00001
2778.84833,0.00001
2776.91991,0.00001
2774.99149,0.00001
2773.06308,0.00001
2771.13466,0.00001
2769.20624,0.00001
2767.27783,0.00001
2765.34941,0.00001
2763.42099,0.00000
2761.49258,0.00000
2759.56416,0.00000
2757.63574,0.00001
2755.70733,0.00001
2753.77891,0.00001
2751.85049,0.00001
2749.92208,0.00000
2747.99366,0.00000
2746.06524,-0.00000
2744.13683,-0.00000
2742.20841,0.00000
2740.27999,0.00000
2738.35158,0.00000
2736.42316,0.00000
2734.49474,0.00000
2732.56633,0.00000
2730.63791,0.00000
2728.70949,0.00000
2726.78108,0.00000
2724.85266,0.00000
2722.92424,0.00000
2720.99583,0.00000
2719.06741,0.00000
2717.13899,0.00001
2715.21058,0.00001
2713.28216,0.00001
2711.35374,0.00001
2709.42533,0.00002
2707.49691,0.00002
2705.56850,0.00002
2703.64008,0.00002
2701.71166,0.00002
2699.78325,0.00001
2697.85483,0.00001
2695.92641,0.00000
2693.99800,0.00000
2692.06958,-0.00000
2690.14116,-0.00000
2688.21275,0.00000
2686.28433,0.00000
2684.35591,0.00000
2682.42750,-0.00000
2680.49908,-0.00000
2678.57066,-0.00000
2676.64225,-0.00000
2674.71383,-0.00000
2672.78541,-0.00000
2670.85700,-0.00000
2668.92858,-0.00000
2667.00016,-0.00000
2665.07175,-0.00000
2663.14333,-0.00000
2661.21491,-0.00000
2659.28650,-0.00000
2657.35808,-0.00000
2655.42966,-0.00000
2653.50125,-0.00000
2651.57283,-0.00000
2649.64441,0.00000
2647.71600,0.00000
2645.78758,0.00001
2643.85916,0.00000
2641.93075,0.00000
2640.00233,-0.00000
2638.07391,-0.00000
2636.14550,0.00000
2634.21708,0.00000
2632.28866,0.00001
2630.36025,0.00000
2628.43183,-0.00000
2626.50341,-0.00000
2624.57500,0.00000
2622.64658,-0.00000
2620.71816,-0.00000
2618.78975,-0.00000
2616.86133,-0.00001
2614.93291,-0.00000
2613.00450,-0.00000
2611.07608,0.00000
2609.14766,0.00001
2607.21925,0.00000
2605.29083,0.00000
2603.36242,0.00000
2601.43400,0.00000
2599.50558,0.00000
2597.57717,0.00000
2595.64875,0.00000
2593.72033,0.00000
2591.79192,0.00000
2589.86350,0.00000
2587.93508,0.00000
2586.00667,-0.00000
2584.07825,-0.00000
2582.14983,-0.00000
2580.22142,0.00000
2578.29300,0.00000
2576.36458,0.00000
2574.43617,0.00000
2572.50775,0.00000
2570.57933,0.00001
2568.65092,0.00001
2566.72250,0.00001
2564.79408,0.00000
2562.86567,-0.00000
2560.93725,-0.00000
2559.00883,-0.00000
2557.08042,0.00001
2555.15200,0.00001
2553.22358,0.00001
2551.29517,0.00001
2549.36675,-0.00000
2547.43833,-0.00001
2545.50992,-0.00001
2543.58150,-0.00001
2541.65308,-0.00001
2539.72467,-0.00000
2537.79625,-0.00000
2535.86783,0.00000
2533.93942,0.00001
2532.01100,0.00001
2530.08258,0.00002
2528.15417,0.00002
2526.22575,0.00001
2524.29733,-0.00001
2522.36892,-0.00001
2520.44050,-0.00002
2518.51208,-0.00001
2516.58367,0.00000
2514.65525,0.00001
2512.72683,0.00001
2510.79842,0.00001
2508.87000,-0.00001
2506.94158,-0.00001
2505.01317,-0.00001
2503.08475,-0.00001
2501.15634,0.00000
2499.22792,0.00001
2497.29950,0.00000
2495.37109,0.00000
2493.44267,-0.00000
2491.51425,0.00000
2489.58584,0.00000
2487.65742,0.00001
2485.72900,0.00001
2483.80059,0.00001
2481.87217,0.00000
2479.94375,-0.00000
2478.01534,-0.00000
2476.08692,-0.00000
2474.15850,-0.00000
2472.23009,-0.00000
2470.30167,-0.00000
2468.37325,0.00000
2466.44484,0.00000
2464.51642,0.00001
2462.58800,0.00001
2460.65959,0.00001
2458.73117,0.00001
2456.80275,0.00001
2454.87434,0.00000
2452.94592,0.00000
2451.01750,-0.00000
2449.08909,-0.00001
2447.16067,-0.00001
2445.23225,-0.00000
2443.30384,0.00000
2441.37542,0.00001
2439.44700,0.00001
2437.51859,0.00000
2435.59017,0.00000
2433.66175,-0.00000
2431.73334,-0.00000
2429.80492,-0.00000
2427.87650,-0.00000
2425.94809,-0.00000
2424.01967,0.00000
2422.09125,0.00001
2420.16284,0.00001
2418.23442,0.00001
2416.30600,0.00000
2414.37759,0.00000
2412.44917,0.00000
2410.52075,0.00000
2408.59234,0.00000
2406.66392,0.00000
2404.73550,-0.00000
2402.80709,-0.00001
2400.87867,-0.00001
2398.95026,-0.00000
2397.02184,0.00000
2395.09342,-0.00000
2393.16501,-0.00002
2391.23659,-0.00005
2389.30817,-0.00008
2387.37976,-0.00011
2385.45134,-0.00013
2383.52292,-0.00013
2381.59451,-0.00012
2379.66609,-0.00011
2377.73767,-0.00011
2375.80926,-0.00010
2373.88084,-0.00008
2371.95242,-0.00004
2370.02401,0.00002
2368.09559,0.00010
2366.16717,0.00018
2364.23876,0.00025
2362.31034,0.00032
2360.38192,0.00038
2358.45351,0.00039
2356.52509,0.00030
2354.59667,0.00009
2352.66826,-0.00018
2350.73984,-0.00039
2348.81142,-0.00044
2346.88301,-0.00032
2344.95459,-0.00011
2343.02617,0.00009
2341.09776,0.00018
2339.16934,0.00016
2337.24092,0.00009
2335.31251,0.00004
2333.38409,0.00004
2331.45567,0.00005
2329.52726,0.00005
2327.59884,0.00004
2325.67042,0.00002
2323.74201,0.00002
2321.81359,0.00001
2319.88517,-0.00000
2317.95676,-0.00002
2316.02834,-0.00003
2314.09992,-0.00003
2312.17151,-0.00001
2310.24309,0.00000
2308.31467,0.00000
2306.38626,-0.00002
2304.45784,-0.00004
2302.52942,-0.00004
2300.60101,-0.00003
2298.67259,-0.00002
2296.74417,-0.00001
2294.81576,-0.00000
2292.88734,-0.00001
2290.95893,-0.00001
2289.03051,-0.00002
2287.10209,-0.00003
2285.17368,-0.00004
2283.24526,-0.00005
2281.31684,-0.00003
2279.38843,-0.00001
2277.46001,0.00000
2275.53159,0.00001
2273.60318,0.00001
2271.67476,-0.00000
2269.74634,-0.00001
2267.81793,0.00000
2265.88951,0.00002
2263.96109,0.00002
2262.03268,0.00002
2260.10426,0.00001
2258.17584,-0.00001
2256.24743,-0.00001
2254.31901,-0.00001
2252.39059,-0.00001
2250.46218,0.00000
2248.53376,0.00001
2246.60534,0.00002
2244.67693,0.00001
2242.74851,0.00000
2240.82009,-0.00002
2238.89168,-0.00003
2236.96326,-0.00003
2235.03484,-0.00002
2233.10643,0.00000
2231.17801,0.00002
2229.24959,0.00003
2227.32118,0.00002
2225.39276,0.00000
2223.46434,-0.00001
2221.53593,-0.00001
2219.60751,-0.00000
2217.67909,0.00001
2215.75068,0.00003
2213.82226,0.00002
2211.89384,-0.00001
2209.96543,-0.00002
2208.03701,-0.00002
2206.10859,-0.00001
2204.18018,-0.00001
2202.25176,-0.00003
2200.32334,-0.00004
2198.39493,-0.00003
2196.46651,-0.00002
2194.53809,0.00000
2192.60968,0.00003
2190.68126,0.00004
2188.75285,0.00001
2186.82443,-0.00003
2184.89601,-0.00003
2182.96760,0.00000
2181.03918,0.00003
2179.11076,0.00004
2177.18235,0.00001
2175.25393,-0.00005
2173.32551,-0.00011
2171.39710,-0.00014
2169.46868,-0.00013
2167.54026,-0.00008
2165.61185,0.00003
2163.68343,0.00014
2161.75501,0.00022
2159.82660,0.00027
2157.89818,0.00027
2155.96976,0.00019
2154.04135,0.00006
2152.11293,-0.00007
2150.18451,-0.00013
2148.25610,-0.00013
2146.32768,-0.00009
2144.39926,-0.00004
2142.47085,0.00001
2140.54243,0.00005
2138.61401,0.00004
2136.68560,0.00002
2134.75718,0.00000
2132.82876,-0.00002
2130.90035,-0.00004
2128.97193,-0.00006
2127.04351,-0.00005
2125.11510,-0.00004
2123.18668,-0.00002
2121.25826,-0.00001
2119.32985,-0.00001
2117.40143,-0.00002
2115.47301,-0.00002
2113.54460,-0.00001
2111.61618,-0.00002
2109.68776,-0.00003
2107.75935,-0.00001
2105.83093,0.00000
2103.90251,0.00001
2101.97410,0.00002
2100.04568,0.00003
2098.11726,0.00001
2096.18885,-0.00001
2094.26043,-0.00001
2092.33201,-0.00000
2090.40360,0.00001
2088.47518,0.00000
2086.54677,-0.00000
2084.61835,-0.00001
2082.68993,-0.00002
2080.76152,-0.00003
2078.83310,-0.00002
2076.90468,-0.00001
2074.97627,-0.00001
2073.04785,-0.00002
2071.11943,-0.00001
2069.19102,0.00000
2067.26260,0.00001
2065.33418,0.00002
2063.40577,0.00002
2061.47735,0.00000
2059.54893,-0.00002
2057.62052,-0.00003
2055.69210,-0.00004
2053.76368,-0.00005
2051.83527,-0.00004
2049.90685,-0.00002
2047.97843,0.00000
2046.05002,0.00003
2044.12160,0.00003
2042.19318,0.00001
2040.26477,0.00000
2038.33635,0.00001
2036.40793,0.00003
2034.47952,0.00004
2032.55110,0.00003
2030.62268,0.00000
2028.69427,-0.00000
2026.76585,0.00002
2024.83743,0.00005
2022.90902,0.00005
2020.98060,0.00001
2019.05218,-0.00003
2017.12377,-0.00009
2015.19535,-0.00011
2013.26693,-0.00005
2011.33852,0.00004
2009.41010,0.00012
2007.48168,0.00016
2005.55327,0.00015
2003.62485,0.00009
2001.69643,-0.00002
1999.76802,-0.00013
1997.83960,-0.00015
1995.91118,-0.00010
1993.98277,-0.00004
1992.05435,0.00002
1990.12593,0.00006
1988.19752,0.00003
1986.26910,-0.00004
1984.34069,-0.00008
1982.41227,-0.00006
1980.48385,-0.00003
1978.55544,0.00001
1976.62702,0.00006
1974.69860,0.00009
1972.77019,0.00007
1970.84177,0.00004
1968.91335,0.00002
1966.98494,0.00002
1965.05652,0.00002
1963.12810,0.00001
1961.19969,0.00001
1959.27127,0.00000
1957.34285,-0.00001
1955.41444,-0.00003
1953.48602,-0.00004
1951.55760,-0.00003
1949.62919,-0.00002
1947.70077,-0.00000
1945.77235,0.00002
1943.84394,0.00002
1941.91552,0.00000
1939.98710,-0.00000
1938.05869,0.00001
1936.13027,0.00002
1934.20185,0.00001
1932.27344,-0.00001
1930.34502,-0.00003
1928.41660,-0.00004
1926.48819,-0.00003
1924.55977,-0.00000
1922.63135,0.00003
1920.70294,0.00005
1918.77452,0.00004
1916.84610,0.00001
1914.91769,-0.00001
1912.98927,-0.00002
1911.06085,-0.00001
1909.13244,0.00000
1907.20402,0.00002
1905.27560,0.00001
1903.34719,-0.00000
1901.41877,-0.00002
1899.49035,-0.00002
1897.56194,-0.00002
1895.63352,-0.00001
1893.70510,0.00001
1891.77669,0.00002
1889.84827,0.00003
1887.91985,0.00002
1885.99144,0.00001
1884.06302,-0.00001
1882.13461,-0.00003
1880.20619,-0.00004
1878.27777,-0.00005
1876.34936,-0.00005
1874.42094,-0.00002
1872.49252,0.00003
1870.56411,0.00007
1868.63569,0.00008
1866.70727,0.00007
1864.77886,0.00003
1862.85044,-0.00002
1860.92202,-0.00005
1858.99361,-0.00004
1857.06519,-0.00002
1855.13677,-0.00003
1853.20836,-0.00004
1851.27994,-0.00004
1849.35152,-0.00001
1847.42311,0.00004
1845.49469,0.00006
1843.56627,0.00006
1841.63786,0.00004
1839.70944,-0.00001
1837.78102,-0.00007
1835.85261,-0.00007
1833.92419,-0.00003
1831.99577,0.00002
1830.06736,0.00005
1828.13894,0.00007
1826.21052,0.00006
1824.28211,0.00002
1822.35369,-0.00002
1820.42527,-0.00004
1818.49686,-0.00005
1816.56844,-0.00003
1814.64002,0.00000
1812.71161,0.00002
1810.78319,0.00001
1808.85477,-0.00001
1806.92636,-0.00002
1804.99794,-0.00002
1803.06952,-0.00001
1801.14111,-0.00001
1799.21269,0.00000
1797.28427,0.00002
1795.35586,0.00004
1793.42744,0.00005
1791.49902,0.00004
1789.57061,0.00002
1787.64219,-0.00002
1785.71377,-0.00005
1783.78536,-0.00004
1781.85694,-0.00003
1779.92853,-0.00003
1778.00011,-0.00001
1776.07169,0.00003
1774.14328,0.00009
1772.21486,0.00012
1770.28644,0.00012
1768.35803,0.00009
1766.42961,0.00007
1764.50119,0.00008
1762.57278,0.00014
1760.64436,0.00018
1758.71594,0.00017
1756.78753,0.00013
1754.85911,0.00009
1752.93069,0.00005
1751.00228,-0.00000
1749.07386,-0.00006
1747.14544,-0.00012
1745.21703,-0.00020
1743.28861,-0.00028
1741.36019,-0.00033
1739.43178,-0.00030
1737.50336,-0.00022
1735.57494,-0.00011
1733.64653,-0.00000
1731.71811,0.00008
1729.78969,0.00011
1727.86128,0.00008
1725.93286,0.00003
1724.00444,0.00008
1722.07603,0.00025
1720.14761,0.00041
1718.21919,0.00050
1716.29078,0.00052
1714.36236,0.00050
1712.43394,0.00048
1710.50553,0.00047
1708.57711,0.00059
1706.64869,0.00091
1704.72028,0.00123
1702.79186,0.00152
1700.86344,0.00161
1698.93503,0.00136
1697.00661,0.00094
1695.07819,0.00040
1693.14978,0.00002
1691.22136,0.00025
1689.29294,0.00063
1687.36453,0.00078
1685.43611,0.00055
1683.50769,0.00020
1681.57928,0.00005
1679.65086,-0.00006
1677.72244,0.00017
1675.79403,0.00102
1673.86561,0.00147
1671.93720,0.00135
1670.00878,0.00140
1668.08036,0.00165
1666.15195,0.00158
1664.22353,0.00094
1662.29511,0.00028
1660.36670,0.00044
1658.43828,0.00017
1656.50986,-0.00091
1654.58145,-0.00186
1652.65303,-0.00262
1650.72461,-0.00343
1648.79620,-0.00387
1646.86778,-0.00345
1644.93936,-0.00221
1643.01095,-0.00168
1641.08253,-0.00194
1639.15411,-0.00213
1637.22570,-0.00240
1635.29728,-0.00294
1633.36886,-0.00339
1631.44045,-0.00364
1629.51203,-0.00360
1627.58361,-0.00296
1625.65520,-0.00197
1623.72678,-0.00123
1621.79836,-0.00063
1619.86995,-0.00001
1617.94153,0.00047
1616.01311,0.00071
1614.08470,0.00096
1612.15628,0.00149
1610.22786,0.00182
1608.29945,0.00180
1606.37103,0.00195
1604.44261,0.00217
1602.51420,0.00209
1600.58578,0.00183
1598.65736,0.00158
1596.72895,0.00139
1594.80053,0.00125
1592.87211,0.00116
1590.94370,0.00112
1589.01528,0.00106
1587.08686,0.00095
1585.15845,0.00082
1583.23003,0.00082
1581.30161,0.00086
1579.37320,0.00080
1577.44478,0.00075
1575.51636,0.00078
1573.58795,0.00075
1571.65953,0.00065
1569.73112,0.00049
1567.80270,0.00052
1565.87428,0.00127
1563.94587,0.00206
1562.01745,0.00243
1560.08903,0.00242
1558.16062,0.00198
1556.23220,0.00120
1554.30378,0.00013
1552.37537,-0.00077
1550.44695,-0.00107
1548.51853,-0.00160
1546.59012,-0.00235
1544.66170,-0.00291
1542.73328,-0.00328
1540.80487,-0.00357
1538.87645,-0.00376
1536.94803,-0.00358
1535.01962,-0.00312
1533.09120,-0.00253
1531.16278,-0.00182
1529.23437,-0.00115
1527.30595,-0.00046
1525.37753,0.00020
1523.44912,0.00060
1521.52070,0.00054
1519.59228,-0.00011
1517.66387,-0.00100
1515.73545,-0.00191
1513.80703,-0.00298
1511.87862,-0.00297
1509.95020,-0.00167
1508.02178,-0.00003
1506.09337,0.00127
1504.16495,0.00189
1502.23653,0.00191
1500.30812,0.00138
1498.37970,0.00044
1496.45128,0.00017
1494.52287,0.00052
1492.59445,0.00100
1490.66603,0.00136
1488.73762,0.00161
1486.80920,0.00191
1484.88078,0.00217
1482.95237,0.00219
1481.02395,0.00211
1479.09553,0.00223
1477.16712,0.00218
1475.23870,0.00165
1473.31028,0.00076
1471.38187,-0.00017
1469.45345,-0.00083
1467.52504,-0.00105
1465.59662,-0.00069
1463.66820,0.00005
1461.73979,0.00044
1459.81137,0.00024
1457.88295,-0.00031
1455.95454,-0.00090
1454.02612,-0.00129
1452.09770,-0.00134
1450.16929,-0.00101
1448.24087,-0.00052
1446.31245,-0.00030
1444.38404,-0.00042
1442.45562,-0.00068
1440.52720,-0.00080
1438.59879,-0.00069
1436.67037,-0.00032
1434.74195,0.00025
1432.81354,0.00086
1430.88512,0.00132
1428.95670,0.00145
1427.02829,0.00137
1425.09987,0.00123
1423.17145,0.00097
1421.24304,0.00068
1419.31462,0.00049
1417.38620,0.00043
1415.45779,0.00045
1413.52937,0.00049
1411.60095,0.00053
1409.67254,0.00042
1407.74412,0.00006
1405.81570,-0.00046
1403.88729,-0.00099
1401.95887,-0.00141
1400.03045,-0.00166
1398.10204,-0.00165
1396.17362,-0.00149
1394.24520,-0.00130
1392.31679,-0.00113
1390.38837,-0.00097
1388.45995,-0.00084
1386.53154,-0.00071
1384.60312,-0.00049
1382.67470,-0.00019
1380.74629,0.00015
1378.81787,0.00053
1376.88945,0.00089
1374.96104,0.00106
1373.03262,0.00096
1371.10420,0.00065
1369.17579,0.00031
1367.24737,0.00010
1365.31896,0.00008
1363.39054,0.00023
1361.46212,0.00041
1359.53371,0.00049
1357.60529,0.00044
1355.67687,0.00033
1353.74846,0.00023
1351.82004,0.00018
1349.89162,0.00011
1347.96321,0.00002
1346.03479,-0.00007
1344.10637,-0.00009
1342.17796,-0.00004
1340.24954,0.00006
1338.32112,0.00019
1336.39271,0.00031
1334.46429,0.00042
1332.53587,0.00049
1330.60746,0.00053
1328.67904,0.00052
1326.75062,0.00043
1324.82221,0.00027
1322.89379,0.00006
1320.96537,-0.00016
1319.03696,-0.00036
1317.10854,-0.00051
1315.18012,-0.00059
1313.25171,-0.00060
1311.32329,-0.00053
1309.39487,-0.00042
1307.46646,-0.00031
1305.53804,-0.00023
1303.60962,-0.00018
1301.68121,-0.00015
1299.75279,-0.00012
1297.82437,-0.00009
1295.89596,-0.00005
1293.96754,-0.00002
1292.03912,0.00000
1290.11071,0.00001
1288.18229,0.00003
1286.25387,0.00005
1284.32546,0.00007
1282.39704,0.00009
1280.46862,0.00011
1278.54021,0.00013
1276.61179,0.00016
1274.68337,0.00017
1272.75496,0.00016
1270.82654,0.00014
1268.89812,0.00011
1266.96971,0.00010
1265.04129,0.00012
1263.11288,0.00017
1261.18446,0.00024
1259.25604,0.00029
1257.32763,0.00032
1255.39921,0.00030
1253.47079,0.00023
1251.54238,0.00011
1249.61396,-0.00007
1247.68554,-0.00028
1245.75713,-0.00049
1243.82871,-0.00065
1241.90029,-0.00075
1239.97188,-0.00079
1238.04346,-0.00078
1236.11504,-0.00072
1234.18663,-0.00064
1232.25821,-0.00054
1230.32979,-0.00043
1228.40138,-0.00032
1226.47296,-0.00020
1224.54454,-0.00008
1222.61613,0.00004
1220.68771,0.00016
1218.75929,0.00028
1216.83088,0.00039
1214.90246,0.00046
1212.97404,0.00047
1211.04563,0.00042
1209.11721,0.00033
1207.18879,0.00024
1205.26038,0.00019
1203.33196,0.00020
1201.40354,0.00024
1199.47513,0.00028
1197.54671,0.00029
1195.61829,0.00025
1193.68988,0.00020
1191.76146,0.00016
1189.83304,0.00018
1187.90463,0.00027
1185.97621,0.00042
1184.04779,0.00058
1182.11938,0.00066
1180.19096,0.00059
1178.26254,0.00032
1176.33413,-0.00009
1174.40571,-0.00051
1172.47729,-0.00079
1170.54888,-0.00086
1168.62046,-0.00074
1166.69204,-0.00051
1164.76363,-0.00029
1162.83521,-0.00015
1160.90680,-0.00010
1158.97838,-0.00009
1157.04996,-0.00011
1155.12155,-0.00012
1153.19313,-0.00011
1151.26471,-0.00006
1149.33630,0.00004
1147.40788,0.00019
1145.47946,0.00036
1143.55105,0.00051
1141.62263,0.00061
1139.69421,0.00066
1137.76580,0.00063
1135.83738,0.00052
1133.90896,0.00034
1131.98055,0.00011
1130.05213,-0.00012
1128.12371,-0.00028
1126.19530,-0.00035
1124.26688,-0.00035
1122.33846,-0.00031
1120.41005,-0.00026
1118.48163,-0.00021
1116.55321,-0.00014
1114.62480,-0.00006
1112.69638,0.00001
1110.76796,0.00003
1108.83955,0.00002
1106.91113,-0.00003
1104.98271,-0.00005
1103.05430,-0.00002
1101.12588,0.00007
1099.19746,0.00019
1097.26905,0.00029
1095.34063,0.00035
1093.41221,0.00036
1091.48380,0.00029
1089.55538,0.00015
1087.62696,-0.00005
1085.69855,-0.00027
1083.77013,-0.00047
1081.84171,-0.00059
1079.91330,-0.00059
1077.98488,-0.00051
1076.05646,-0.00037
1074.12805,-0.00024
1072.19963,-0.00014
1070.27121,-0.00007
1068.34280,-0.00001
1066.41438,0.00004
1064.48596,0.00009
1062.55755,0.00013
1060.62913,0.00013
1058.70072,0.00010
1056.77230,0.00006
1054.84388,0.00002
1052.91547,-0.00000
1050.98705,-0.00001
1049.05863,-0.00002
1047.13022,-0.00005
1045.20180,-0.00007
1043.27338,-0.00009
1041.34497,-0.00010
1039.41655,-0.00009
1037.48813,-0.00012
1035.55972,-0.00021
1033.63130,-0.00033
1031.70288,-0.00042
1029.77447,-0.00042
1027.84605,-0.00030
1025.91763,-0.00009
1023.98922,0.00013
1022.06080,0.00028
1020.13238,0.00032
1018.20397,0.00026
1016.27555,0.00015
1014.34713,0.00004
1012.41872,-0.00002
1010.49030,-0.00001
1008.56188,0.00006
1006.63347,0.00016
1004.70505,0.00024
1002.77663,0.00028
1000.84822,0.00027
998.91980,0.00022
996.99138,0.00017
995.06297,0.00011
993.13455,0.00006
991.20613,0.00002
989.27772,0.00001
987.34930,0.00001
985.42088,0.00003
983.49247,0.00006
981.56405,0.00008
979.63563,0.00007
977.70722,0.00005
975.77880,-0.00000
973.85038,-0.00006
971.92197,-0.00009
969.99355,-0.00009
968.06513,-0.00006
966.13672,-0.00000
964.20830,0.00006
962.27988,0.00011
960.35147,0.00013
958.42305,0.00012
956.49463,0.00010
954.56622,0.00009
952.63780,0.00009
950.70939,0.00011
948.78097,0.00014
946.85255,0.00017
944.92414,0.00016
942.99572,0.00012
941.06730,0.00004
939.13889,-0.00005
937.21047,-0.00013
935.28205,-0.00018
933.35364,-0.00020
931.42522,-0.00019
929.49680,-0.00019
927.56839,-0.00018
925.63997,-0.00018
923.71155,-0.00017
921.78314,-0.00013
919.85472,-0.00005
917.92630,0.00004
915.99789,0.00013
914.06947,0.00018
912.14105,0.00019
910.21264,0.00016
908.28422,0.00012
906.35580,0.00008
904.42739,0.00003
902.49897,-0.00001
900.57055,-0.00004
898.64214,-0.00006
896.71372,-0.00006
894.78530,-0.00003
892.85689,0.00001
890.92847,0.00004
889.00005,0.00006
887.07164,0.00006
885.14322,0.00004
883.21480,0.00001
881.28639,-0.00002
879.35797,-0.00005
877.42955,-0.00008
875.50114,-0.00007
873.57272,-0.00004
871.64430,-0.00000
869.71589,0.00003
867.78747,0.00005
865.85905,0.00008
863.93064,0.00012
862.00222,0.00017
860.07380,0.00019
858.14539,0.00016
856.21697,0.00008
854.28855,-0.00004
852.36014,-0.00012
850.43172,-0.00012
848.50331,-0.00007
846.57489,-0.00001
844.64647,0.00004
842.71806,0.00004
840.78964,-0.00002
838.86122,-0.00009
836.93281,-0.00016
835.00439,-0.00019
833.07597,-0.00020
831.14756,-0.00019
829.21914,-0.00016
827.29072,-0.00012
825.36231,-0.00008
823.43389,-0.00003
821.50547,0.00002
819.57706,0.00006
817.64864,0.00009
815.72022,0.00010
813.79181,0.00010
811.86339,0.00010
809.93497,0.00008
808.00656,0.00007
806.07814,0.00006
804.14972,0.00004
802.22131,0.00003
800.29289,0.00001
798.36447,0.00001
796.43606,0.00001
794.50764,0.00002
792.57922,0.00004
790.65081,0.00004
788.72239,0.00004
786.79397,0.00002
784.86556,-0.00001
782.93714,-0.00004
781.00872,-0.00006
779.08031,-0.00007
777.15189,-0.00007
775.22347,-0.00006
773.29506,-0.00003
771.36664,-0.00001
769.43822,0.00001
767.50981,0.00003
765.58139,0.00006
763.65297,0.00009
761.72456,0.00013
759.79614,0.00017
757.86772,0.00021
755.93931,0.00023
754.01089,0.00020
752.08247,0.00010
750.15406,-0.00006
748.22564,-0.00024
746.29723,-0.00040
744.36881,-0.00047
742.44039,-0.00045
740.51198,-0.00034
738.58356,-0.00018
736.65514,-0.00001
734.72673,0.00014
732.79831,0.00023
730.86989,0.00026
728.94148,0.00022
727.01306,0.00015
725.08464,0.00007
723.15623,0.00002
721.22781,0.00000
719.29939,0.00000
717.37098,0.00000
715.44256,0.00000
713.51414,0.00004
711.58573,0.00010
709.65731,0.00013
707.72889,0.00009
705.80048,-0.00009
703.87206,-0.00009
701.94364,-0.00009
700.01523,-0.00009
698.08681,-0.00009
