3997.60762,0.00000
3995.67920,0.00000
3993.75078,0.00000
3991.82237,0.00000
3989.89395,0.00000
3987.96554,0.00001
3986.03712,0.00001
3984.10870,0.00001
3982.18029,0.00001
3980.25187,0.00001
3978.32345,-0.00000
3976.39504,-0.00002
3974.46662,-0.00004
3972.53820,-0.00003
3970.60979,-0.00000
3968.68137,0.00002
3966.75295,0.00003
3964.82454,0.00002
3962.89612,-0.00001
3960.96770,-0.00002
3959.03929,-0.00002
3957.11087,-0.00001
3955.18245,0.00000
3953.25404,0.00000
3951.32562,0.00000
3949.39720,0.00001
3947.46879,0.00001
3945.54037,0.00002
3943.61195,0.00002
3941.68354,0.00001
3939.75512,-0.00000
3937.82670,-0.00002
3935.89829,-0.00003
3933.96987,-0.00003
3932.04145,-0.00003
3930.11304,-0.00001
3928.18462,0.00001
3926.25620,0.00003
3924.32779,0.00004
3922.39937,0.00003
3920.47095,0.00001
3918.54254,-0.00001
3916.61412,-0.00002
3914.68570,-0.00002
3912.75729,-0.00001
3910.82887,-0.00000
3908.90045,0.00001
3906.97204,0.00001
3905.04362,0.00001
3903.11520,0.00000
3901.18679,-0.00000
3899.25837,-0.00001
3897.32995,-0.00001
3895.40154,-0.00001
3893.47312,0.00000
3891.54470,0.00001
3889.61629,0.00000
3887.68787,-0.00001
3885.75946,-0.00001
3883.83104,-0.00001
3881.90262,0.00000
3879.97421,0.00001
3878.04579,0.00001
3876.11737,-0.00001
3874.18896,-0.00001
3872.26054,-0.00000
3870.33212,0.00001
3868.40371,0.00003
3866.47529,0.00002
3864.54687,0.00000
3862.61846,-0.00002
3860.69004,-0.00003
3858.76162,-0.00001
3856.83321,0.00002
3854.90479,0.00003
3852.97637,0.00002
3851.04796,-0.00000
3849.11954,-0.00002
3847.19112,-0.00003
3845.26271,-0.00002
3843.33429,0.00001
3841.40587,0.00003
3839.47746,0.00004
3837.54904,0.00002
3835.62062,0.00001
3833.69221,0.00000
3831.76379,-0.00000
3829.83537,-0.00001
3827.90696,-0.00002
3825.97854,-0.00003
3824.05012,-0.00004
3822.12171,-0.00004
3820.19329,-0.00002
3818.26487,0.00001
3816.33646,0.00003
3814.40804,0.00003
3812.47962,0.00002
3810.55121,0.00001
3808.62279,0.00000
3806.69437,-0.00000
3804.76596,-0.00001
3802.83754,-0.00002
3800.90912,-0.00002
3798.98071,-0.00001
3797.05229,0.00002
3795.12387,0.00004
3793.19546,0.00003
3791.26704,-0.00000
3789.33862,-0.00004
3787.41021,-0.00005
3785.48179,-0.00002
3783.55338,0.00001
3781.62496,0.00003
3779.69654,0.00003
3777.76813,0.00002
3775.83971,0.00001
3773.91129,-0.00001
3771.98288,-0.00002
3770.05446,-0.00002
3768.12604,-0.00002
3766.19763,-0.00000
3764.26921,0.00001
3762.34079,0.00001
3760.41238,0.00000
3758.48396,0.00001
3756.55554,0.00003
3754.62713,0.00004
3752.69871,0.00005
3750.77029,0.00003
3748.84188,-0.00001
3746.91346,-0.00006
3744.98504,-0.00008
3743.05663,-0.00007
3741.12821,-0.00003
3739.19979,0.00002
3737.27138,0.00005
3735.34296,0.00005
3733.41454,0.00004
3731.48613,0.00001
3729.55771,-0.00001
3727.62929,-0.00002
3725.70088,-0.00001
3723.77246,-0.00001
3721.84404,-0.00002
3719.91563,-0.00004
3717.98721,-0.00004
3716.05879,-0.00002
3714.13038,0.00003
3712.20196,0.00006
3710.27354,0.00006
3708.34513,0.00003
3706.41671,-0.00001
3704.48829,-0.00004
3702.55988,-0.00003
3700.63146,-0.00000
3698.70304,0.00001
3696.77463,0.00001
3694.84621,0.00001
3692.91779,0.00001
3690.98938,0.00002
3689.06096,0.00002
3687.13254,0.00002
3685.20413,0.00000
3683.27571,-0.00001
3681.34730,-0.00000
3679.41888,0.00002
3677.49046,0.00003
3675.56205,0.00004
3673.63363,0.00003
3671.70521,0.00002
3669.77680,0.00001
3667.84838,0.00001
3665.91996,0.00002
3663.99155,0.00002
3662.06313,0.00002
3660.13471,0.00000
3658.20630,-0.00001
3656.27788,-0.00000
3654.34946,0.00002
3652.42105,0.00004
3650.49263,0.00003
3648.56421,0.00003
3646.63580,0.00001
3644.70738,-0.00001
3642.77896,-0.00002
3640.85055,-0.00001
3638.92213,0.00000
3636.99371,0.00003
3635.06530,0.00006
3633.13688,0.00006
3631.20846,0.00003
3629.28005,-0.00001
3627.35163,-0.00003
3625.42321,-0.00002
3623.49480,-0.00001
3621.56638,0.00002
3619.63796,0.00003
3617.70955,0.00001
3615.78113,-0.00002
3613.85271,-0.00000
3611.92430,0.00002
3609.99588,0.00004
3608.06746,0.00002
3606.13905,0.00000
3604.21063,-0.00003
3602.28221,-0.00004
3600.35380,-0.00002
3598.42538,0.00001
3596.49696,0.00004
3594.56855,0.00005
3592.64013,0.00006
3590.71171,0.00004
3588.78330,0.00001
3586.85488,0.00000
3584.92647,-0.00000
3582.99805,-0.00001
3581.06963,-0.00001
3579.14122,-0.00001
3577.21280,-0.00001
3575.28438,0.00001
3573.35597,0.00004
3571.42755,0.00006
3569.49913,0.00004
3567.57072,0.00000
3565.64230,-0.00003
3563.71388,-0.00004
3561.78547,-0.00002
3559.85705,0.00002
3557.92863,0.00004
3556.00022,0.00003
3554.07180,0.00001
3552.14338,-0.00001
3550.21497,-0.00001
3548.28655,-0.00001
3546.35813,-0.00000
3544.42972,0.00000
3542.50130,0.00000
3540.57288,0.00001
3538.64447,0.00002
3536.71605,0.00003
3534.78763,0.00003
3532.85922,0.00002
3530.93080,0.00001
3529.00238,-0.00001
3527.07397,-0.00002
3525.14555,-0.00002
3523.21713,-0.00001
3521.28872,-0.00000
3519.36030,0.00001
3517.43188,0.00001
3515.50347,0.00001
3513.57505,0.00000
3511.64663,0.00001
3509.71822,0.00002
3507.78980,0.00003
3505.86138,0.00002
3503.93297,0.00001
3502.00455,-0.00002
3500.07613,-0.00005
3498.14772,-0.00005
3496.21930,-0.00003
3494.29088,0.00000
3492.36247,0.00003
3490.43405,0.00003
3488.50563,0.00002
3486.57722,0.00000
3484.64880,-0.00002
3482.72039,-0.00003
3480.79197,-0.00002
3478.86355,-0.00001
3476.93514,0.00000
3475.00672,0.00001
3473.07830,0.00001
3471.14989,-0.00000
3469.22147,-0.00001
3467.29305,-0.00002
3465.36464,-0.00002
3463.43622,-0.00002
3461.50780,-0.00002
3459.57939,-0.00002
3457.65097,-0.00001
3455.72255,-0.00000
3453.79414,0.00000
3451.86572,-0.00000
3449.93730,-0.00001
3448.00889,-0.00002
3446.08047,-0.00001
3444.15205,0.00001
3442.22364,0.00002
3440.29522,0.00001
3438.36680,-0.00000
3436.43839,-0.00001
3434.50997,-0.00001
3432.58155,-0.00001
3430.65314,0.00000
3428.72472,0.00001
3426.79630,0.00001
3424.86789,0.00000
3422.93947,0.00000
3421.01105,0.00000
3419.08264,-0.00000
3417.15422,-0.00001
3415.22580,-0.00001
3413.29739,-0.00000
3411.36897,0.00001
3409.44055,0.00003
3407.51214,0.00002
3405.58372,0.00001
3403.65530,0.00000
3401.72689,0.00000
3399.79847,0.00002
3397.87005,0.00003
3395.94164,0.00004
3394.01322,0.00004
3392.08480,0.00003
3390.15639,0.00002
3388.22797,0.00002
3386.29955,0.00003
3384.37114,0.00004
3382.44272,0.00003
3380.51431,0.00003
3378.58589,0.00004
3376.65747,0.00004
3374.72906,0.00004
3372.80064,0.00003
3370.87222,0.00002
3368.94381,0.00002
3367.01539,0.00001
3365.08697,0.00001
3363.15856,0.00000
3361.23014,0.00000
3359.30172,0.00001
3357.37331,0.00003
3355.44489,0.00004
3353.51647,0.00005
3351.58806,0.00004
3349.65964,0.00003
3347.73122,0.00001
3345.80281,0.00001
3343.87439,0.00002
3341.94597,0.00003
3340.01756,0.00005
3338.08914,0.00006
3336.16072,0.00006
3334.23231,0.00006
3332.30389,0.00005
3330.37547,0.00004
3328.44706,0.00004
3326.51864,0.00005
3324.59022,0.00005
3322.66181,0.00004
3320.73339,0.00003
3318.80497,0.00002
3316.87656,-0.00000
3314.94814,-0.00001
3313.01972,-0.00002
3311.09131,-0.00004
3309.16289,-0.00006
3307.23447,-0.00009
3305.30606,-0.00011
3303.37764,-0.00013
3301.44922,-0.00014
3299.52081,-0.00015
3297.59239,-0.00015
3295.66397,-0.00017
3293.73556,-0.00019
3291.80714,-0.00021
3289.87872,-0.00023
3287.95031,-0.00024
3286.02189,-0.00024
3284.09347,-0.00025
3282.16506,-0.00026
3280.23664,-0.00025
3278.30823,-0.00024
3276.37981,-0.00022
3274.45139,-0.00020
3272.52298,-0.00018
3270.59456,-0.00017
3268.66614,-0.00017
3266.73773,-0.00016
3264.80931,-0.00012
3262.88089,-0.00008
3260.95248,-0.00005
3259.02406,-0.00002
3257.09564,-0.00000
3255.16723,0.00001
3253.23881,0.00003
3251.31039,0.00005
3249.38198,0.00007
3247.45356,0.00009
3245.52514,0.00009
3243.59673,0.00010
3241.66831,0.00009
3239.73989,0.00009
3237.81148,0.00009
3235.88306,0.00009
3233.95464,0.00008
3232.02623,0.00009
3230.09781,0.00010
3228.16939,0.00010
3226.24098,0.00008
3224.31256,0.00007
3222.38414,0.00005
3220.45573,0.00003
3218.52731,0.00001
3216.59889,0.00001
3214.67048,0.00002
3212.74206,0.00002
3210.81364,0.00002
3208.88523,0.00001
3206.95681,-0.00001
3205.02839,-0.00003
3203.09998,-0.00004
3201.17156,-0.00005
3199.24314,-0.00005
3197.31473,-0.00004
3195.38631,-0.00004
3193.45789,-0.00003
3191.52948,-0.00003
3189.60106,-0.00004
3187.67264,-0.00004
3185.74423,-0.00003
3183.81581,-0.00003
3181.88739,-0.00004
3179.95898,-0.00004
3178.03056,-0.00004
3176.10215,-0.00003
3174.17373,-0.00001
3172.24531,0.00001
3170.31690,0.00003
3168.38848,0.00003
3166.46006,0.00002
3164.53165,0.00001
3162.60323,0.00000
3160.67481,-0.00000
3158.74640,-0.00000
3156.81798,0.00001
3154.88956,0.00003
3152.96115,0.00004
3151.03273,0.00004
3149.10431,0.00004
3147.17590,0.00003
3145.24748,0.00003
3143.31906,0.00004
3141.39065,0.00005
3139.46223,0.00005
3137.53381,0.00004
3135.60540,0.00003
3133.67698,0.00002
3131.74856,0.00003
3129.82015,0.00005
3127.89173,0.00006
3125.96331,0.00007
3124.03490,0.00007
3122.10648,0.00007
3120.17806,0.00007
3118.24965,0.00007
3116.32123,0.00006
3114.39281,0.00006
3112.46440,0.00005
3110.53598,0.00005
3108.60756,0.00006
3106.67915,0.00006
3104.75073,0.00006
3102.82231,0.00005
3100.89390,0.00005
3098.96548,0.00005
3097.03706,0.00005
3095.10865,0.00004
3093.18023,0.00003
3091.25181,0.00002
3089.32340,0.00001
3087.39498,0.00000
3085.46656,0.00000
3083.53815,-0.00000
3081.60973,-0.00001
3079.68132,-0.00002
3077.75290,-0.00002
3075.82448,-0.00001
3073.89607,-0.00001
3071.96765,-0.00002
3070.03923,-0.00003
3068.11082,-0.00006
3066.18240,-0.00008
3064.25398,-0.00010
3062.32557,-0.00011
3060.39715,-0.00011
3058.46873,-0.00010
3056.54032,-0.00009
3054.61190,-0.00007
3052.68348,-0.00005
3050.75507,-0.00003
3048.82665,-0.00002
3046.89823,-0.00001
3044.96982,-0.00001
3043.04140,-0.00000
3041.11298,0.00000
3039.18457,0.00001
3037.25615,0.00001
3035.32773,0.00001
3033.39932,-0.00001
3031.47090,-0.00003
3029.54248,-0.00005
3027.61407,-0.00005
3025.68565,-0.00003
3023.75723,0.00000
3021.82882,0.00004
3019.90040,0.00007
3017.97198,0.00008
3016.04357,0.00007
3014.11515,0.00004
3012.18673,0.00002
3010.25832,0.00001
3008.32990,0.00002
3006.40148,0.00006
3004.47307,0.00010
3002.54465,0.00014
3000.61623,0.00018
2998.68782,0.00020
2996.75940,0.00023
2994.83098,0.00025
2992.90257,0.00026
2990.97415,0.00025
2989.04573,0.00022
2987.11732,0.00020
2985.18890,0.00019
2983.26048,0.00019
2981.33207,0.00019
2979.40365,0.00018
2977.47524,0.00018
2975.54682,0.00016
2973.61840,0.00013
2971.68999,0.00008
2969.76157,-0.00001
2967.83315,-0.00014
2965.90474,-0.00030
2963.97632,-0.00047
2962.04790,-0.00060
2960.11949,-0.00067
2958.19107,-0.00066
2956.26265,-0.00055
2954.33424,-0.00035
2952.40582,-0.00009
2950.47740,0.00019
2948.54899,0.00043
2946.62057,0.00058
2944.69215,0.00061
2942.76374,0.00052
2940.83532,0.00034
2938.90690,0.00012
2936.97849,-0.00009
2935.05007,-0.00027
2933.12165,-0.00042
2931.19324,-0.00053
2929.26482,-0.00061
2927.33640,-0.00066
2925.40799,-0.00068
2923.47957,-0.00063
2921.55115,-0.00053
2919.62274,-0.00038
2917.69432,-0.00021
2915.76590,-0.00003
2913.83749,0.00011
2911.90907,0.00019
2909.98065,0.00023
2908.05224,0.00023
2906.12382,0.00021
2904.19540,0.00019
2902.26699,0.00017
2900.33857,0.00016
2898.41015,0.00015
2896.48174,0.00016
2894.55332,0.00018
2892.62490,0.00021
2890.69649,0.00025
2888.76807,0.00029
2886.83965,0.00032
2884.91124,0.00033
2882.98282,0.00031
2881.05440,0.00025
2879.12599,0.00013
2877.19757,-0.00005
2875.26916,-0.00025
2873.34074,-0.00042
2871.41232,-0.00052
2869.48391,-0.00048
2867.55549,-0.00030
2865.62707,-0.00006
2863.69866,0.00017
2861.77024,0.00027
2859.84182,0.00021
2857.91341,0.00000
2855.98499,-0.00026
2854.05657,-0.00046
2852.12816,-0.00053
2850.19974,-0.00045
2848.27132,-0.00024
2846.34291,0.00000
2844.41449,0.00020
2842.48607,0.00032
2840.55766,0.00035
2838.62924,0.00032
2836.70082,0.00026
2834.77241,0.00020
2832.84399,0.00014
2830.91557,0.00010
2828.98716,0.00006
2827.05874,0.00003
2825.13032,0.00001
2823.20191,0.00001
2821.27349,0.00001
2819.34507,0.00001
2817.41666,0.00002
2815.48824,0.00002
2813.55982,0.00002
2811.63141,0.00002
2809.70299,0.00002
2807.77457,0.00002
2805.84616,0.00002
2803.91774,0.00001
2801.98932,0.00000
2800.06091,0.00000
2798.13249,0.00000
2796.20407,0.00001
2794.27566,0.00001
2792.34724,0.00001
2790.41882,0.00001
2788.49041,0.00000
2786.56199,-0.00000
2784.63357,-0.00000
2782.70516,0.00001
2780.77674,0.00001
2778.84832,0.00002
2776.91991,0.00002
2774.99149,0.00001
2773.06308,0.00000
2771.13466,-0.00000
2769.20624,0.00000
2767.27783,0.00001
2765.34941,0.00001
2763.42099,0.00001
2761.49258,0.00000
2759.56416,-0.00000
2757.63574,-0.00000
2755.70733,0.00000
2753.77891,0.00001
2751.85049,0.00001
2749.92208,0.00000
2747.99366,-0.00000
2746.06524,-0.00000
2744.13683,-0.00000
2742.20841,0.00000
2740.27999,0.00001
2738.35158,0.00001
2736.42316,0.00001
2734.49474,0.00001
2732.56633,0.00000
2730.63791,-0.00000
2728.70949,-0.00001
2726.78108,-0.00001
2724.85266,-0.00001
2722.92424,-0.00000
2720.99583,-0.00000
2719.06741,-0.00000
2717.13899,0.00000
2715.21058,0.00001
2713.28216,0.00001
2711.35374,0.00001
2709.42533,0.00001
2707.49691,0.00001
2705.56849,0.00002
2703.64008,0.00002
2701.71166,0.00002
2699.78324,0.00002
2697.85483,0.00002
2695.92641,0.00001
2693.99799,0.00000
2692.06958,0.00000
2690.14116,0.00001
2688.21274,0.00001
2686.28433,0.00000
2684.35591,-0.00000
2682.42749,-0.00000
2680.49908,-0.00000
2678.57066,-0.00000
2676.64225,-0.00000
2674.71383,-0.00000
2672.78541,-0.00000
2670.85700,-0.00000
2668.92858,0.00000
2667.00016,-0.00000
2665.07175,-0.00000
2663.14333,-0.00000
2661.21491,-0.00001
2659.28650,-0.00000
2657.35808,-0.00000
2655.42966,-0.00000
2653.50125,-0.00000
2651.57283,-0.00001
2649.64441,-0.00000
2647.71600,0.00000
2645.78758,0.00001
2643.85916,0.00001
2641.93075,0.00001
2640.00233,0.00001
2638.07391,0.00001
2636.14550,0.00001
2634.21708,0.00000
2632.28866,-0.00000
2630.36025,-0.00001
2628.43183,-0.00001
2626.50341,-0.00001
2624.57500,-0.00000
2622.64658,0.00000
2620.71816,0.00000
2618.78975,0.00000
2616.86133,-0.00000
2614.93291,0.00000
2613.00450,0.00000
2611.07608,0.00000
2609.14766,-0.00000
2607.21925,-0.00001
2605.29083,-0.00001
2603.36241,-0.00001
2601.43400,0.00001
2599.50558,0.00002
2597.57716,0.00002
2595.64875,0.00002
2593.72033,0.00001
2591.79191,-0.00001
2589.86350,-0.00002
2587.93508,-0.00001
2586.00666,-0.00001
2584.07825,-0.00000
2582.14983,-0.00000
2580.22141,0.00000
2578.29300,0.00001
2576.36458,0.00002
2574.43617,0.00002
2572.50775,0.00002
2570.57933,0.00001
2568.65092,0.00000
2566.72250,-0.00000
2564.79408,-0.00001
2562.86567,-0.00001
2560.93725,-0.00002
2559.00883,-0.00002
2557.08042,-0.00001
2555.15200,0.00001
2553.22358,0.00002
2551.29517,0.00002
2549.36675,0.00001
2547.43833,0.00000
2545.50992,-0.00001
2543.58150,-0.00000
2541.65308,-0.00000
2539.72467,-0.00000
2537.79625,-0.00001
2535.86783,-0.00002
2533.93942,-0.00001
2532.01100,0.00001
2530.08258,0.00002
2528.15417,0.00002
2526.22575,0.00002
2524.29733,0.00001
2522.36892,-0.00000
2520.44050,-0.00001
2518.51208,-0.00002
2516.58367,-0.00001
2514.65525,0.00000
2512.72683,0.00002
2510.79842,0.00002
2508.87000,0.00002
2506.94158,0.00001
2505.01317,-0.00002
2503.08475,-0.00004
2501.15633,-0.00005
2499.22792,-0.00004
2497.29950,-0.00002
2495.37108,0.00001
2493.44267,0.00004
2491.51425,0.00005
2489.58583,0.00003
2487.65742,0.00001
2485.72900,-0.00002
2483.80058,-0.00003
2481.87217,-0.00002
2479.94375,0.00000
2478.01533,0.00002
2476.08692,0.00003
2474.15850,0.00002
2472.23009,-0.00000
2470.30167,-0.00002
2468.37325,-0.00002
2466.44484,-0.00001
2464.51642,0.00001
2462.58800,0.00002
2460.65959,0.00001
2458.73117,-0.00000
2456.80275,-0.00001
2454.87434,-0.00001
2452.94592,-0.00001
2451.01750,-0.00000
2449.08909,0.00000
2447.16067,0.00000
2445.23225,-0.00000
2443.30384,-0.00001
2441.37542,-0.00000
2439.44700,0.00001
2437.51859,0.00002
2435.59017,0.00002
2433.66175,0.00001
2431.73334,0.00000
2429.80492,-0.00001
2427.87650,-0.00002
2425.94809,-0.00001
2424.01967,-0.00001
2422.09125,-0.00000
2420.16284,0.00001
2418.23442,0.00001
2416.30600,0.00000
2414.37759,0.00000
2412.44917,0.00000
2410.52075,0.00001
2408.59234,0.00001
2406.66392,-0.00000
2404.73550,-0.00001
2402.80709,-0.00002
2400.87867,-0.00001
2398.95025,0.00001
2397.02184,0.00003
2395.09342,0.00005
2393.16500,0.00005
2391.23659,0.00003
2389.30817,-0.00000
2387.37975,-0.00003
2385.45134,-0.00006
2383.52292,-0.00005
2381.59450,-0.00002
2379.66609,-0.00003
2377.73767,0.00000
2375.80925,0.00003
2373.88084,0.00008
2371.95242,0.00003
2370.02401,-0.00007
2368.09559,-0.00000
2366.16717,0.00000
2364.23876,-0.00005
2362.31034,-0.00005
2360.38192,0.00001
2358.45351,0.00022
2356.52509,0.00036
2354.59667,0.00006
2352.66826,-0.00018
2350.73984,-0.00029
2348.81142,-0.00033
2346.88301,-0.00024
2344.95459,0.00007
2343.02617,0.00038
2341.09776,0.00051
2339.16934,0.00018
2337.24092,0.00003
2335.31251,-0.00010
2333.38409,-0.00027
2331.45567,-0.00031
2329.52726,-0.00017
2327.59884,-0.00012
2325.67042,0.00006
2323.74201,0.00015
2321.81359,0.00014
2319.88517,0.00002
2317.95676,-0.00005
2316.02834,-0.00017
2314.09992,-0.00025
2312.17151,-0.00033
2310.24309,-0.00021
2308.31467,-0.00002
2306.38626,0.00019
2304.45784,0.00038
2302.52942,0.00037
2300.60101,0.00022
2298.67259,0.00003
2296.74417,-0.00013
2294.81576,-0.00018
2292.88734,-0.00013
2290.95892,-0.00004
2289.03051,0.00005
2287.10209,0.00007
2285.17367,0.00005
2283.24526,0.00001
2281.31684,-0.00001
2279.38842,-0.00001
2277.46001,0.00001
2275.53159,0.00002
2273.60317,0.00002
2271.67476,0.00000
2269.74634,-0.00001
2267.81793,-0.00002
2265.88951,-0.00002
2263.96109,-0.00002
2262.03268,-0.00001
2260.10426,0.00002
2258.17584,0.00004
2256.24743,0.00004
2254.31901,0.00002
2252.39059,0.00000
2250.46218,-0.00003
2248.53376,-0.00005
2246.60534,-0.00003
2244.67693,0.00002
2242.74851,0.00003
2240.82009,-0.00000
2238.89168,-0.00003
2236.96326,-0.00005
2235.03484,-0.00004
2233.10643,0.00001
2231.17801,0.00007
2229.24959,0.00008
2227.32118,0.00005
2225.39276,0.00001
2223.46434,-0.00002
2221.53593,-0.00003
2219.60751,0.00000
2217.67909,0.00003
2215.75068,0.00001
2213.82226,-0.00004
2211.89384,-0.00007
2209.96543,-0.00005
2208.03701,-0.00002
2206.10859,-0.00000
2204.18018,0.00001
2202.25176,0.00002
2200.32334,0.00001
2198.39493,-0.00001
2196.46651,0.00000
2194.53809,0.00006
2192.60968,0.00006
2190.68126,0.00001
2188.75284,-0.00002
2186.82443,-0.00002
2184.89601,-0.00003
2182.96759,-0.00005
2181.03918,-0.00001
2179.11076,0.00009
2177.18234,0.00014
2175.25393,0.00009
2173.32551,0.00000
2171.39710,-0.00010
2169.46868,-0.00018
2167.54026,-0.00018
2165.61185,-0.00010
2163.68343,0.00001
2161.75501,0.00008
2159.82660,0.00012
2157.89818,0.00013
2155.96976,0.00012
2154.04135,0.00010
2152.11293,0.00007
2150.18451,-0.00001
2148.25610,-0.00010
2146.32768,-0.00012
2144.39926,-0.00007
2142.47085,-0.00000
2140.54243,0.00004
2138.61401,0.00007
2136.68560,0.00006
2134.75718,0.00001
2132.82876,-0.00006
2130.90035,-0.00009
2128.97193,-0.00008
2127.04351,-0.00004
2125.11510,0.00002
2123.18668,0.00006
2121.25826,0.00006
2119.32985,0.00001
2117.40143,-0.00004
2115.47301,-0.00006
2113.54460,-0.00003
2111.61618,0.00001
2109.68776,0.00003
2107.75935,0.00003
2105.83093,0.00002
2103.90251,0.00001
2101.97410,0.00001
2100.04568,0.00003
2098.11726,0.00003
2096.18885,-0.00001
2094.26043,-0.00005
2092.33201,-0.00005
2090.40360,-0.00003
2088.47518,-0.00001
2086.54676,0.00001
2084.61835,0.00002
2082.68993,0.00002
2080.76151,0.00001
2078.83310,-0.00001
2076.90468,-0.00002
2074.97626,-0.00005
2073.04785,-0.00006
2071.11943,-0.00004
2069.19102,0.00000
2067.26260,0.00004
2065.33418,0.00005
2063.40577,0.00003
2061.47735,0.00000
2059.54893,-0.00000
2057.62052,0.00002
2055.69210,0.00003
2053.76368,0.00001
2051.83527,-0.00003
2049.90685,-0.00004
2047.97843,0.00000
2046.05002,0.00008
2044.12160,0.00013
2042.19318,0.00010
2040.26477,0.00002
2038.33635,-0.00008
2036.40793,-0.00019
2034.47952,-0.00022
2032.55110,-0.00016
2030.62268,-0.00004
2028.69427,0.00008
2026.76585,0.00018
2024.83743,0.00023
2022.90902,0.00018
2020.98060,0.00003
2019.05218,-0.00014
2017.12377,-0.00024
2015.19535,-0.00023
2013.26693,-0.00011
2011.33852,0.00006
2009.41010,0.00019
2007.48168,0.00025
2005.55327,0.00022
2003.62485,0.00012
2001.69643,-0.00002
1999.76802,-0.00014
1997.83960,-0.00015
1995.91118,-0.00009
1993.98277,-0.00001
1992.05435,0.00002
1990.12593,-0.00001
1988.19752,-0.00007
1986.26910,-0.00009
1984.34068,-0.00006
1982.41227,0.00001
1980.48385,0.00008
1978.55543,0.00010
1976.62702,0.00007
1974.69860,0.00000
1972.77018,-0.00003
1970.84177,0.00000
1968.91335,0.00003
1966.98494,0.00001
1965.05652,-0.00004
1963.12810,-0.00008
1961.19969,-0.00010
1959.27127,-0.00009
1957.34285,-0.00004
1955.41444,0.00004
1953.48602,0.00013
1951.55760,0.00017
1949.62919,0.00014
1947.70077,0.00006
1945.77235,-0.00005
1943.84394,-0.00014
1941.91552,-0.00017
1939.98710,-0.00010
1938.05869,0.00002
1936.13027,0.00010
1934.20185,0.00010
1932.27344,0.00004
1930.34502,-0.00002
1928.41660,-0.00005
1926.48819,-0.00003
1924.55977,0.00001
1922.63135,0.00005
1920.70294,0.00004
1918.77452,0.00002
1916.84610,-0.00001
1914.91769,-0.00003
1912.98927,-0.00004
1911.06085,-0.00003
1909.13244,-0.00001
1907.20402,0.00001
1905.27560,0.00003
1903.34719,0.00003
1901.41877,0.00002
1899.49035,-0.00001
1897.56194,-0.00002
1895.63352,-0.00001
1893.70510,0.00000
1891.77669,0.00002
1889.84827,0.00002
1887.91985,0.00001
1885.99144,-0.00001
1884.06302,-0.00003
1882.13460,-0.00004
1880.20619,-0.00003
1878.27777,-0.00001
1876.34935,0.00002
1874.42094,0.00003
1872.49252,0.00002
1870.56410,0.00000
1868.63569,-0.00001
1866.70727,-0.00002
1864.77886,-0.00001
1862.85044,0.00001
1860.92202,0.00002
1858.99361,0.00001
1857.06519,-0.00001
1855.13677,-0.00001
1853.20836,-0.00001
1851.27994,-0.00000
1849.35152,0.00000
1847.42311,0.00001
1845.49469,0.00001
1843.56627,0.00001
1841.63786,0.00001
1839.70944,0.00000
1837.78102,-0.00000
1835.85261,-0.00001
1833.92419,-0.00001
1831.99577,-0.00001
1830.06736,0.00000
1828.13894,0.00000
1826.21052,0.00000
1824.28211,-0.00000
1822.35369,-0.00000
1820.42527,0.00001
1818.49686,0.00001
1816.56844,0.00001
1814.64002,0.00001
1812.71161,-0.00000
1810.78319,-0.00001
1808.85477,-0.00002
1806.92636,-0.00001
1804.99794,-0.00001
1803.06952,0.00000
1801.14111,0.00001
1799.21269,0.00001
1797.28427,0.00001
1795.35586,0.00001
1793.42744,-0.00000
1791.49902,-0.00000
1789.57061,-0.00000
1787.64219,-0.00000
1785.71377,0.00000
1783.78536,0.00000
1781.85694,0.00000
1779.92852,-0.00000
1778.00011,0.00000
1776.07169,0.00001
1774.14327,0.00002
1772.21486,0.00002
1770.28644,0.00003
1768.35802,0.00004
1766.42961,0.00007
1764.50119,0.00010
1762.57278,0.00013
1760.64436,0.00014
1758.71594,0.00015
1756.78753,0.00014
1754.85911,0.00011
1752.93069,0.00007
1751.00228,0.00001
1749.07386,-0.00004
1747.14544,-0.00009
1745.21703,-0.00012
1743.28861,-0.00014
1741.36019,-0.00017
1739.43178,-0.00020
1737.50336,-0.00022
1735.57494,-0.00021
1733.64653,-0.00015
1731.71811,-0.00006
1729.78969,0.00004
1727.86128,0.00012
1725.93286,0.00020
1724.00444,0.00029
1722.07603,0.00037
1720.14761,0.00041
1718.21919,0.00040
1716.29078,0.00040
1714.36236,0.00045
1712.43394,0.00056
1710.50553,0.00069
1708.57711,0.00091
1706.64869,0.00121
1704.72028,0.00148
1702.79186,0.00163
1700.86344,0.00152
1698.93503,0.00114
1697.00661,0.00063
1695.07819,0.00015
1693.14978,0.00002
1691.22136,0.00042
1689.29294,0.00083
1687.36453,0.00083
1685.43611,0.00043
1683.50769,-0.00000
1681.57928,-0.00019
1679.65086,-0.00012
1677.72244,0.00042
1675.79403,0.00126
1673.86561,0.00160
1671.93719,0.00144
1670.00878,0.00141
1668.08036,0.00153
1666.15195,0.00131
1664.22353,0.00067
1662.29511,0.00022
1660.36670,0.00022
1658.43828,-0.00019
1656.50986,-0.00117
1654.58145,-0.00215
1652.65303,-0.00307
1650.72461,-0.00395
1648.79620,-0.00430
1646.86778,-0.00368
1644.93936,-0.00259
1643.01095,-0.00222
1641.08253,-0.00252
1639.15411,-0.00277
1637.22570,-0.00293
1635.29728,-0.00310
1633.36886,-0.00312
1631.44045,-0.00295
1629.51203,-0.00258
1627.58361,-0.00188
1625.65520,-0.00096
1623.72678,-0.00016
1621.79836,0.00042
1619.86995,0.00088
1617.94153,0.00118
1616.01311,0.00130
1614.08470,0.00146
1612.15628,0.00175
1610.22786,0.00189
1608.29945,0.00180
1606.37103,0.00180
1604.44261,0.00187
1602.51420,0.00177
1600.58578,0.00151
1598.65736,0.00123
1596.72895,0.00101
1594.80053,0.00084
1592.87211,0.00073
1590.94370,0.00067
1589.01528,0.00061
1587.08686,0.00054
1585.15845,0.00049
1583.23003,0.00048
1581.30161,0.00047
1579.37320,0.00042
1577.44478,0.00041
1575.51636,0.00044
1573.58795,0.00046
1571.65953,0.00044
1569.73111,0.00043
1567.80270,0.00071
1565.87428,0.00148
1563.94587,0.00223
1562.01745,0.00256
1560.08903,0.00246
1558.16062,0.00202
1556.23220,0.00131
1554.30378,0.00048
1552.37537,-0.00009
1550.44695,-0.00030
1548.51853,-0.00066
1546.59012,-0.00130
1544.66170,-0.00205
1542.73328,-0.00275
1540.80487,-0.00335
1538.87645,-0.00372
1536.94803,-0.00364
1535.01962,-0.00314
1533.09120,-0.00242
1531.16278,-0.00173
1529.23437,-0.00118
1527.30595,-0.00062
1525.37753,-0.00005
1523.44912,0.00030
1521.52070,0.00021
1519.59228,-0.00032
1517.66387,-0.00112
1515.73545,-0.00222
1513.80703,-0.00340
1511.87862,-0.00359
1509.95020,-0.00244
1508.02178,-0.00069
1506.09337,0.00080
1504.16495,0.00162
1502.23653,0.00171
1500.30812,0.00113
1498.37970,0.00026
1496.45128,-0.00004
1494.52287,0.00030
1492.59445,0.00085
1490.66603,0.00130
1488.73762,0.00167
1486.80920,0.00211
1484.88078,0.00252
1482.95237,0.00265
1481.02395,0.00260
1479.09553,0.00255
1477.16712,0.00231
1475.23870,0.00168
1473.31028,0.00075
1471.38187,-0.00018
1469.45345,-0.00081
1467.52503,-0.00090
1465.59662,-0.00042
1463.66820,0.00026
1461.73979,0.00052
1459.81137,0.00025
1457.88295,-0.00034
1455.95454,-0.00094
1454.02612,-0.00131
1452.09770,-0.00129
1450.16929,-0.00092
1448.24087,-0.00048
1446.31245,-0.00031
1444.38404,-0.00044
1442.45562,-0.00070
1440.52720,-0.00085
1438.59879,-0.00078
1436.67037,-0.00046
1434.74195,0.00008
1432.81354,0.00071
1430.88512,0.00122
1428.95670,0.00144
1427.02829,0.00145
1425.09987,0.00132
1423.17145,0.00106
1421.24304,0.00075
1419.31462,0.00053
1417.38620,0.00045
1415.45779,0.00046
1413.52937,0.00050
1411.60095,0.00050
1409.67254,0.00033
1407.74412,-0.00005
1405.81570,-0.00053
1403.88729,-0.00101
1401.95887,-0.00139
1400.03045,-0.00159
1398.10204,-0.00158
1396.17362,-0.00142
1394.24520,-0.00125
1392.31679,-0.00110
1390.38837,-0.00097
1388.45995,-0.00087
1386.53154,-0.00074
1384.60312,-0.00052
1382.67470,-0.00020
1380.74629,0.00015
1378.81787,0.00049
1376.88945,0.00078
1374.96104,0.00091
1373.03262,0.00082
1371.10420,0.00056
1369.17579,0.00027
1367.24737,0.00009
1365.31895,0.00010
1363.39054,0.00028
1361.46212,0.00049
1359.53371,0.00059
1357.60529,0.00055
1355.67687,0.00041
1353.74846,0.00027
1351.82004,0.00018
1349.89162,0.00013
1347.96321,0.00007
1346.03479,-0.00000
1344.10637,-0.00006
1342.17796,-0.00006
1340.24954,-0.00001
1338.32112,0.00010
1336.39271,0.00024
1334.46429,0.00038
1332.53587,0.00050
1330.60746,0.00057
1328.67904,0.00057
1326.75062,0.00050
1324.82221,0.00036
1322.89379,0.00016
1320.96537,-0.00006
1319.03696,-0.00027
1317.10854,-0.00045
1315.18012,-0.00057
1313.25171,-0.00062
1311.32329,-0.00059
1309.39487,-0.00051
1307.46646,-0.00041
1305.53804,-0.00032
1303.60962,-0.00023
1301.68121,-0.00017
1299.75279,-0.00011
1297.82437,-0.00006
1295.89596,-0.00004
1293.96754,-0.00003
1292.03912,-0.00003
1290.11071,-0.00002
1288.18229,0.00001
1286.25387,0.00006
1284.32546,0.00010
1282.39704,0.00013
1280.46862,0.00015
1278.54021,0.00016
1276.61179,0.00016
1274.68337,0.00016
1272.75496,0.00014
1270.82654,0.00013
1268.89812,0.00012
1266.96971,0.00012
1265.04129,0.00014
1263.11287,0.00017
1261.18446,0.00021
1259.25604,0.00024
1257.32763,0.00025
1255.39921,0.00023
1253.47079,0.00017
1251.54238,0.00008
1249.61396,-0.00006
1247.68554,-0.00024
1245.75713,-0.00041
1243.82871,-0.00056
1241.90029,-0.00067
1239.97188,-0.00073
1238.04346,-0.00075
1236.11504,-0.00072
1234.18663,-0.00066
1232.25821,-0.00059
1230.32979,-0.00051
1228.40138,-0.00041
1226.47296,-0.00029
1224.54454,-0.00018
1222.61613,-0.00005
1220.68771,0.00008
1218.75929,0.00022
1216.83088,0.00035
1214.90246,0.00044
1212.97404,0.00048
1211.04563,0.00045
1209.11721,0.00038
1207.18879,0.00030
1205.26038,0.00025
1203.33196,0.00024
1201.40354,0.00027
1199.47513,0.00031
1197.54671,0.00031
1195.61829,0.00028
1193.68988,0.00023
1191.76146,0.00018
1189.83304,0.00019
1187.90463,0.00026
1185.97621,0.00040
1184.04779,0.00056
1182.11938,0.00066
1180.19096,0.00061
1178.26254,0.00037
1176.33413,-0.00004
1174.40571,-0.00047
1172.47729,-0.00077
1170.54888,-0.00086
1168.62046,-0.00074
1166.69204,-0.00050
1164.76363,-0.00027
1162.83521,-0.00012
1160.90680,-0.00007
1158.97838,-0.00008
1157.04996,-0.00011
1155.12155,-0.00013
1153.19313,-0.00012
1151.26471,-0.00007
1149.33630,0.00004
1147.40788,0.00020
1145.47946,0.00038
1143.55105,0.00054
1141.62263,0.00066
1139.69421,0.00070
1137.76580,0.00066
1135.83738,0.00054
1133.90896,0.00034
1131.98055,0.00010
1130.05213,-0.00014
1128.12371,-0.00031
1126.19530,-0.00039
1124.26688,-0.00039
1122.33846,-0.00034
1120.41005,-0.00028
1118.48163,-0.00020
1116.55321,-0.00012
1114.62480,-0.00004
1112.69638,0.00001
1110.76796,0.00001
1108.83955,-0.00005
1106.91113,-0.00012
1104.98271,-0.00015
1103.05430,-0.00011
1101.12588,-0.00002
1099.19746,0.00012
1097.26905,0.00026
1095.34063,0.00036
1093.41221,0.00042
1091.48380,0.00040
1089.55538,0.00030
1087.62696,0.00012
1085.69855,-0.00011
1083.77013,-0.00034
1081.84171,-0.00051
1079.91330,-0.00059
1077.98488,-0.00056
1076.05646,-0.00047
1074.12805,-0.00035
1072.19963,-0.00024
1070.27121,-0.00014
1068.34280,-0.00005
1066.41438,0.00003
1064.48596,0.00010
1062.55755,0.00014
1060.62913,0.00015
1058.70072,0.00012
1056.77230,0.00008
1054.84388,0.00003
1052.91547,0.00000
1050.98705,-0.00001
1049.05863,-0.00002
1047.13022,-0.00004
1045.20180,-0.00006
1043.27338,-0.00008
1041.34497,-0.00009
1039.41655,-0.00009
1037.48813,-0.00015
1035.55972,-0.00026
1033.63130,-0.00041
1031.70288,-0.00052
1029.77447,-0.00053
1027.84605,-0.00040
1025.91763,-0.00018
1023.98922,0.00007
1022.06080,0.00025
1020.13238,0.00031
1018.20397,0.00026
1016.27555,0.00016
1014.34713,0.00006
1012.41872,-0.00000
1010.49030,0.00001
1008.56188,0.00007
1006.63347,0.00016
1004.70505,0.00024
1002.77663,0.00028
1000.84822,0.00028
998.91980,0.00025
996.99138,0.00021
995.06297,0.00015
993.13455,0.00008
991.20613,0.00003
989.27772,-0.00001
987.34930,-0.00002
985.42088,-0.00000
983.49247,0.00003
981.56405,0.00007
979.63563,0.00009
977.70722,0.00009
975.77880,0.00006
973.85038,0.00002
971.92197,-0.00002
969.99355,-0.00004
968.06513,-0.00003
966.13672,0.00000
964.20830,0.00005
962.27988,0.00009
960.35147,0.00012
958.42305,0.00013
956.49464,0.00013
954.56622,0.00012
952.63780,0.00011
950.70939,0.00012
948.78097,0.00014
946.85255,0.00016
944.92414,0.00016
942.99572,0.00012
941.06730,0.00004
939.13889,-0.00005
937.21047,-0.00014
935.28205,-0.00020
933.35364,-0.00020
931.42522,-0.00019
929.49680,-0.00017
927.56839,-0.00017
925.63997,-0.00018
923.71155,-0.00019
921.78314,-0.00016
919.85472,-0.00009
917.92630,0.00001
915.99789,0.00011
914.06947,0.00019
912.14105,0.00022
910.21264,0.00021
908.28422,0.00018
906.35580,0.00012
904.42739,0.00006
902.49897,0.00000
900.57055,-0.00004
898.64214,-0.00007
896.71372,-0.00007
894.78530,-0.00004
892.85689,-0.00000
890.92847,0.00003
889.00005,0.00005
887.07164,0.00004
885.14322,0.00003
883.21480,0.00000
881.28639,-0.00003
879.35797,-0.00006
877.42955,-0.00007
875.50114,-0.00007
873.57272,-0.00004
871.64430,0.00000
869.71589,0.00004
867.78747,0.00007
865.85905,0.00012
863.93064,0.00018
862.00222,0.00023
860.07380,0.00025
858.14539,0.00020
856.21697,0.00008
854.28856,-0.00006
852.36014,-0.00015
850.43172,-0.00015
848.50331,-0.00009
846.57489,-0.00001
844.64647,0.00003
842.71806,0.00001
840.78964,-0.00007
838.86122,-0.00016
836.93281,-0.00023
835.00439,-0.00026
833.07597,-0.00024
831.14756,-0.00020
829.21914,-0.00014
827.29072,-0.00009
825.36231,-0.00004
823.43389,-0.00001
821.50547,0.00003
819.57706,0.00006
817.64864,0.00008
815.72022,0.00009
813.79181,0.00009
811.86339,0.00009
809.93497,0.00009
808.00656,0.00009
806.07814,0.00008
804.14972,0.00007
802.22131,0.00005
800.29289,0.00003
798.36447,0.00002
796.43606,0.00002
794.50764,0.00005
792.57922,0.00006
790.65081,0.00007
788.72239,0.00006
786.79397,0.00003
784.86556,-0.00003
782.93714,-0.00008
781.00872,-0.00011
779.08031,-0.00013
777.15189,-0.00011
775.22347,-0.00008
773.29506,-0.00003
771.36664,0.00001
769.43822,0.00004
767.50981,0.00006
765.58139,0.00009
763.65297,0.00013
761.72456,0.00016
759.79614,0.00020
757.86772,0.00023
755.93931,0.00024
754.01089,0.00019
752.08248,0.00008
750.15406,-0.00009
748.22564,-0.00027
746.29723,-0.00043
744.36881,-0.00050
742.44039,-0.00048
740.51198,-0.00038
738.58356,-0.00023
736.65514,-0.00003
734.72673,0.00014
732.79831,0.00026
730.86989,0.00030
728.94148,0.00026
727.01306,0.00020
725.08464,0.00009
723.15623,0.00001
721.22781,-0.00002
719.29939,-0.00002
717.37098,-0.00002
715.44256,0.00000
713.51414,0.00008
711.58573,0.00020
709.65731,0.00022
707.72889,0.00010
705.80048,-0.00017
703.87206,-0.00017
701.94364,-0.00017
700.01523,-0.00017
698.08681,-0.00017
