3997.60762,0.00000
3995.67920,0.00000
3993.75078,0.00000
3991.82237,0.00000
3989.89395,0.00000
3987.96554,0.00000
3986.03712,0.00000
3984.10870,0.00000
3982.18029,0.00000
3980.25187,0.00000
3978.32345,-0.00000
3976.39504,-0.00001
3974.46662,-0.00001
3972.53820,-0.00000
3970.60979,0.00000
3968.68137,0.00001
3966.75295,0.00001
3964.82454,0.00000
3962.89612,-0.00000
3960.96770,-0.00001
3959.03929,-0.00000
3957.11087,0.00000
3955.18245,0.00001
3953.25404,0.00001
3951.32562,0.00000
3949.39720,-0.00000
3947.46879,-0.00001
3945.54037,-0.00001
3943.61195,-0.00001
3941.68354,0.00000
3939.75512,0.00001
3937.82670,0.00001
3935.89829,0.00001
3933.96987,0.00000
3932.04145,-0.00000
3930.11304,-0.00001
3928.18462,-0.00001
3926.25620,-0.00001
3924.32779,-0.00000
3922.39937,-0.00001
3920.47095,-0.00002
3918.54254,-0.00001
3916.61412,-0.00000
3914.68570,0.00001
3912.75729,0.00003
3910.82887,0.00004
3908.90045,0.00004
3906.97204,0.00001
3905.04362,-0.00003
3903.11520,-0.00005
3901.18679,-0.00004
3899.25837,-0.00002
3897.32995,0.00000
3895.40154,0.00002
3893.47312,0.00003
3891.54470,0.00002
3889.61629,0.00001
3887.68787,-0.00000
3885.75946,-0.00001
3883.83104,-0.00001
3881.90262,-0.00000
3879.97421,0.00001
3878.04579,0.00002
3876.11737,0.00001
3874.18896,0.00000
3872.26054,-0.00001
3870.33212,-0.00002
3868.40371,-0.00002
3866.47529,-0.00001
3864.54687,0.00000
3862.61846,0.00002
3860.69004,0.00003
3858.76162,0.00002
3856.83321,-0.00001
3854.90479,-0.00003
3852.97637,-0.00004
3851.04796,-0.00003
3849.11954,0.00001
3847.19112,0.00005
3845.26271,0.00006
3843.33429,0.00002
3841.40587,-0.00002
3839.47746,-0.00004
3837.54904,-0.00004
3835.62062,-0.00002
3833.69221,0.00000
3831.76379,0.00003
3829.83537,0.00004
3827.90696,0.00003
3825.97854,0.00002
3824.05012,-0.00000
3822.12171,-0.00002
3820.19329,-0.00004
3818.26487,-0.00004
3816.33646,-0.00002
3814.40804,0.00001
3812.47962,0.00004
3810.55121,0.00004
3808.62279,0.00004
3806.69437,0.00001
3804.76596,-0.00002
3802.83754,-0.00003
3800.90912,-0.00004
3798.98071,-0.00003
3797.05229,-0.00001
3795.12387,0.00001
3793.19546,0.00003
3791.26704,0.00003
3789.33862,0.00002
3787.41021,0.00001
3785.48179,0.00000
3783.55338,-0.00001
3781.62496,-0.00001
3779.69654,-0.00001
3777.76813,0.00001
3775.83971,0.00002
3773.91129,0.00001
3771.98288,0.00001
3770.05446,-0.00000
3768.12604,-0.00001
3766.19763,-0.00000
3764.26921,0.00001
3762.34079,0.00001
3760.41238,0.00002
3758.48396,0.00002
3756.55554,0.00002
3754.62713,-0.00000
3752.69871,-0.00002
3750.77029,-0.00003
3748.84188,-0.00004
3746.91346,-0.00004
3744.98504,-0.00001
3743.05663,0.00003
3741.12821,0.00003
3739.19979,0.00001
3737.27138,-0.00001
3735.34296,-0.00003
3733.41454,-0.00002
3731.48613,-0.00001
3729.55771,0.00002
3727.62929,0.00003
3725.70088,0.00001
3723.77246,-0.00001
3721.84404,-0.00001
3719.91563,0.00002
3717.98721,0.00003
3716.05879,0.00003
3714.13038,0.00000
3712.20196,-0.00001
3710.27354,-0.00002
3708.34513,-0.00001
3706.41671,0.00001
3704.48829,0.00002
3702.55988,0.00002
3700.63146,0.00002
3698.70304,0.00003
3696.77463,0.00004
3694.84621,0.00004
3692.91779,0.00002
3690.98938,-0.00001
3689.06096,-0.00002
3687.13254,-0.00000
3685.20413,0.00003
3683.27571,0.00007
3681.34730,0.00008
3679.41888,0.00005
3677.49046,0.00002
3675.56205,-0.00001
3673.63363,-0.00003
3671.70521,-0.00003
3669.77680,-0.00001
3667.84838,0.00002
3665.91996,0.00004
3663.99155,0.00006
3662.06313,0.00007
3660.13471,0.00005
3658.20630,0.00004
3656.27788,0.00005
3654.34946,0.00005
3652.42105,0.00002
3650.49263,-0.00002
3648.56421,-0.00003
3646.63580,-0.00004
3644.70738,-0.00003
3642.77896,0.00001
3640.85055,0.00005
3638.92213,0.00005
3636.99371,0.00004
3635.06530,0.00005
3633.13688,0.00004
3631.20846,0.00001
3629.28005,-0.00002
3627.35163,-0.00002
3625.42321,-0.00001
3623.49480,0.00001
3621.56638,0.00003
3619.63796,0.00003
3617.70955,0.00001
3615.78113,-0.00001
3613.85271,-0.00001
3611.92430,0.00001
3609.99588,0.00001
3608.06746,0.00001
3606.13905,0.00001
3604.21063,0.00001
3602.28221,0.00001
3600.35380,0.00002
3598.42538,0.00002
3596.49696,0.00001
3594.56855,0.00002
3592.64013,0.00005
3590.71171,0.00004
3588.78330,0.00001
3586.85488,-0.00002
3584.92647,-0.00003
3582.99805,-0.00004
3581.06963,-0.00002
3579.14122,0.00002
3577.21280,0.00004
3575.28438,0.00004
3573.35597,0.00005
3571.42755,0.00005
3569.49913,0.00004
3567.57072,0.00002
3565.64230,-0.00001
3563.71388,-0.00003
3561.78547,-0.00004
3559.85705,-0.00001
3557.92863,0.00002
3556.00022,0.00004
3554.07180,0.00005
3552.14338,0.00006
3550.21497,0.00004
3548.28655,-0.00001
3546.35813,-0.00005
3544.42972,-0.00006
3542.50130,-0.00005
3540.57288,-0.00005
3538.64447,-0.00002
3536.71605,0.00001
3534.78763,0.00002
3532.85922,0.00004
3530.93080,0.00006
3529.00238,0.00006
3527.07397,0.00002
3525.14555,-0.00003
3523.21713,-0.00005
3521.28872,-0.00004
3519.36030,-0.00001
3517.43188,0.00000
3515.50347,0.00001
3513.57505,-0.00000
3511.64663,0.00001
3509.71822,0.00005
3507.78980,0.00006
3505.86138,0.00005
3503.93297,0.00000
3502.00455,-0.00005
3500.07613,-0.00009
3498.14772,-0.00009
3496.21930,-0.00005
3494.29088,-0.00001
3492.36247,0.00000
3490.43405,0.00000
3488.50563,0.00002
3486.57722,0.00003
3484.64880,0.00001
3482.72039,-0.00003
3480.79197,-0.00004
3478.86355,-0.00001
3476.93514,0.00003
3475.00672,0.00006
3473.07830,0.00005
3471.14989,-0.00002
3469.22147,-0.00010
3467.29305,-0.00013
3465.36464,-0.00012
3463.43622,-0.00008
3461.50780,-0.00002
3459.57939,0.00002
3457.65097,0.00002
3455.72255,0.00003
3453.79414,0.00005
3451.86572,0.00005
3449.93730,0.00002
3448.00889,0.00001
3446.08047,0.00004
3444.15205,0.00009
3442.22364,0.00009
3440.29522,0.00005
3438.36680,-0.00003
3436.43839,-0.00011
3434.50997,-0.00017
3432.58155,-0.00019
3430.65314,-0.00013
3428.72472,-0.00003
3426.79630,0.00003
3424.86789,0.00006
3422.93947,0.00009
3421.01105,0.00012
3419.08264,0.00010
3417.15422,0.00005
3415.22580,-0.00001
3413.29739,-0.00005
3411.36897,-0.00006
3409.44055,-0.00002
3407.51214,0.00003
3405.58372,0.00005
3403.65530,0.00001
3401.72689,-0.00003
3399.79847,-0.00005
3397.87005,-0.00005
3395.94164,-0.00003
3394.01322,0.00000
3392.08480,0.00002
3390.15639,0.00001
3388.22797,0.00003
3386.29955,0.00006
3384.37114,0.00009
3382.44272,0.00008
3380.51431,0.00004
3378.58589,0.00001
3376.65747,0.00000
3374.72906,0.00000
3372.80064,0.00002
3370.87222,0.00003
3368.94381,0.00004
3367.01539,0.00004
3365.08697,0.00004
3363.15856,0.00003
3361.23014,0.00000
3359.30172,-0.00003
3357.37331,-0.00004
3355.44489,-0.00002
3353.51647,0.00002
3351.58806,0.00004
3349.65964,0.00004
3347.73122,0.00003
3345.80281,-0.00000
3343.87439,0.00002
3341.94597,0.00010
3340.01756,0.00019
3338.08914,0.00020
3336.16072,0.00012
3334.23231,-0.00000
3332.30389,-0.00009
3330.37547,-0.00006
3328.44706,0.00006
3326.51864,0.00018
3324.59022,0.00022
3322.66181,0.00016
3320.73339,0.00003
3318.80497,-0.00015
3316.87656,-0.00030
3314.94814,-0.00034
3313.01972,-0.00025
3311.09131,-0.00003
3309.16289,0.00023
3307.23447,0.00038
3305.30606,0.00030
3303.37764,0.00002
3301.44922,-0.00029
3299.52081,-0.00043
3297.59239,-0.00031
3295.66397,-0.00004
3293.73556,0.00017
3291.80714,0.00016
3289.87872,-0.00005
3287.95031,-0.00031
3286.02189,-0.00050
3284.09347,-0.00058
3282.16506,-0.00059
3280.23664,-0.00056
3278.30823,-0.00048
3276.37981,-0.00026
3274.45139,0.00003
3272.52298,0.00026
3270.59456,0.00029
3268.66614,0.00012
3266.73773,-0.00016
3264.80931,-0.00045
3262.88089,-0.00057
3260.95248,-0.00042
3259.02406,-0.00016
3257.09564,-0.00001
3255.16723,-0.00000
3253.23881,-0.00000
3251.31039,0.00005
3249.38198,0.00012
3247.45356,0.00019
3245.52514,0.00023
3243.59673,0.00013
3241.66831,-0.00009
3239.73989,-0.00020
3237.81148,-0.00007
3235.88306,0.00018
3233.95464,0.00035
3232.02623,0.00037
3230.09781,0.00025
3228.16939,0.00003
3226.24098,-0.00014
3224.31256,-0.00016
3222.38414,-0.00007
3220.45573,0.00003
3218.52731,0.00008
3216.59889,0.00009
3214.67048,0.00006
3212.74206,0.00001
3210.81364,-0.00001
3208.88523,-0.00001
3206.95681,0.00000
3205.02839,0.00001
3203.09998,0.00001
3201.17156,-0.00002
3199.24314,-0.00005
3197.31473,-0.00007
3195.38631,-0.00006
3193.45789,-0.00003
3191.52948,-0.00001
3189.60106,0.00000
3187.67264,-0.00000
3185.74423,-0.00001
3183.81581,-0.00002
3181.88739,-0.00003
3179.95898,-0.00003
3178.03056,-0.00002
3176.10215,-0.00002
3174.17373,-0.00002
3172.24531,-0.00001
3170.31690,-0.00000
3168.38848,0.00000
3166.46006,-0.00000
3164.53165,-0.00002
3162.60323,-0.00007
3160.67481,-0.00012
3158.74640,-0.00008
3156.81798,0.00004
3154.88956,0.00017
3152.96115,0.00025
3151.03273,0.00023
3149.10431,0.00009
3147.17590,-0.00009
3145.24748,-0.00017
3143.31906,-0.00007
3141.39065,0.00010
3139.46223,0.00019
3137.53381,0.00017
3135.60540,0.00010
3133.67698,0.00003
3131.74856,-0.00004
3129.82015,-0.00009
3127.89173,-0.00011
3125.96331,-0.00012
3124.03490,-0.00009
3122.10648,0.00006
3120.17806,0.00027
3118.24965,0.00039
3116.32123,0.00035
3114.39281,0.00023
3112.46440,0.00012
3110.53598,0.00004
3108.60756,-0.00004
3106.67915,-0.00005
3104.75073,0.00001
3102.82231,0.00004
3100.89390,0.00002
3098.96548,-0.00002
3097.03706,-0.00006
3095.10865,-0.00012
3093.18023,-0.00016
3091.25181,-0.00011
3089.32340,0.00001
3087.39498,0.00009
3085.46656,0.00011
3083.53815,0.00016
3081.60973,0.00026
3079.68132,0.00029
3077.75290,0.00016
3075.82448,-0.00007
3073.89607,-0.00025
3071.96765,-0.00029
3070.03923,-0.00018
3068.11082,-0.00000
3066.18240,0.00007
3064.25398,-0.00002
3062.32557,-0.00019
3060.39715,-0.00032
3058.46873,-0.00031
3056.54032,-0.00018
3054.61190,-0.00003
3052.68348,0.00001
3050.75507,-0.00003
3048.82665,-0.00004
3046.89823,0.00003
3044.96982,0.00012
3043.04140,0.00012
3041.11298,0.00009
3039.18457,0.00005
3037.25615,0.00002
3035.32773,0.00001
3033.39932,0.00000
3031.47090,-0.00001
3029.54248,-0.00008
3027.61407,-0.00018
3025.68565,-0.00023
3023.75723,-0.00017
3021.82882,-0.00007
3019.90040,0.00004
3017.97198,0.00016
3016.04357,0.00028
3014.11515,0.00034
3012.18673,0.00029
3010.25832,0.00015
3008.32990,0.00000
3006.40148,-0.00011
3004.47307,-0.00014
3002.54465,-0.00005
3000.61623,0.00009
2998.68782,0.00022
2996.75940,0.00032
2994.83098,0.00037
2992.90257,0.00035
2990.97415,0.00025
2989.04573,0.00014
2987.11732,0.00006
2985.18890,0.00006
2983.26048,0.00012
2981.33207,0.00021
2979.40365,0.00027
2977.47524,0.00027
2975.54682,0.00022
2973.61840,0.00013
2971.68999,0.00003
2969.76157,-0.00007
2967.83315,-0.00019
2965.90474,-0.00032
2963.97632,-0.00045
2962.04790,-0.00056
2960.11949,-0.00064
2958.19107,-0.00064
2956.26265,-0.00053
2954.33424,-0.00035
2952.40582,-0.00009
2950.47740,0.00019
2948.54899,0.00044
2946.62057,0.00058
2944.69215,0.00060
2942.76374,0.00048
2940.83532,0.00027
2938.90690,0.00001
2936.97849,-0.00021
2935.05007,-0.00034
2933.12165,-0.00038
2931.19324,-0.00040
2929.26482,-0.00044
2927.33640,-0.00049
2925.40799,-0.00055
2923.47957,-0.00056
2921.55115,-0.00048
2919.62274,-0.00031
2917.69432,-0.00010
2915.76590,0.00008
2913.83749,0.00020
2911.90907,0.00023
2909.98065,0.00020
2908.05224,0.00016
2906.12382,0.00011
2904.19540,0.00008
2902.26699,0.00008
2900.33857,0.00011
2898.41015,0.00014
2896.48174,0.00017
2894.55332,0.00021
2892.62490,0.00023
2890.69649,0.00023
2888.76807,0.00024
2886.83965,0.00025
2884.91124,0.00027
2882.98282,0.00023
2881.05440,0.00015
2879.12599,0.00005
2877.19757,-0.00008
2875.26916,-0.00023
2873.34074,-0.00037
2871.41232,-0.00045
2869.48391,-0.00043
2867.55549,-0.00032
2865.62707,-0.00012
2863.69866,0.00010
2861.77024,0.00024
2859.84182,0.00022
2857.91341,0.00006
2855.98499,-0.00016
2854.05657,-0.00033
2852.12816,-0.00038
2850.19974,-0.00030
2848.27132,-0.00015
2846.34291,0.00001
2844.41449,0.00015
2842.48607,0.00024
2840.55766,0.00028
2838.62924,0.00030
2836.70082,0.00028
2834.77241,0.00021
2832.84399,0.00012
2830.91557,0.00004
2828.98716,0.00000
2827.05874,-0.00001
2825.13032,-0.00000
2823.20191,0.00001
2821.27349,0.00001
2819.34507,0.00000
2817.41666,-0.00001
2815.48824,-0.00001
2813.55982,0.00001
2811.63141,0.00003
2809.70299,0.00004
2807.77457,0.00001
2805.84616,-0.00002
2803.91774,-0.00004
2801.98932,-0.00003
2800.06091,-0.00000
2798.13249,0.00002
2796.20407,0.00003
2794.27566,0.00004
2792.34724,0.00005
2790.41882,0.00004
2788.49041,0.00004
2786.56199,0.00002
2784.63357,-0.00002
2782.70516,-0.00006
2780.77674,-0.00006
2778.84832,-0.00002
2776.91991,0.00003
2774.99149,0.00005
2773.06308,0.00005
2771.13466,0.00003
2769.20624,-0.00000
2767.27783,-0.00003
2765.34941,-0.00003
2763.42099,-0.00002
2761.49258,-0.00001
2759.56416,-0.00000
2757.63574,-0.00001
2755.70733,-0.00001
2753.77891,0.00000
2751.85049,0.00002
2749.92208,0.00004
2747.99366,0.00004
2746.06524,0.00003
2744.13683,0.00000
2742.20841,-0.00002
2740.27999,-0.00002
2738.35158,-0.00001
2736.42316,-0.00001
2734.49474,-0.00001
2732.56633,-0.00002
2730.63791,-0.00002
2728.70949,0.00000
2726.78108,0.00003
2724.85266,0.00004
2722.92424,0.00003
2720.99583,0.00002
2719.06741,-0.00000
2717.13899,-0.00001
2715.21058,-0.00001
2713.28216,0.00001
2711.35374,0.00002
2709.42533,0.00002
2707.49691,0.00002
2705.56849,0.00001
2703.64008,0.00001
2701.71166,0.00001
2699.78324,0.00001
2697.85483,0.00001
2695.92641,0.00001
2693.99799,0.00000
2692.06958,-0.00000
2690.14116,-0.00001
2688.21274,-0.00001
2686.28433,-0.00001
2684.35591,-0.00001
2682.42749,0.00001
2680.49908,0.00002
2678.57066,0.00003
2676.64225,0.00003
2674.71383,0.00001
2672.78541,-0.00000
2670.85700,-0.00001
2668.92858,-0.00001
2667.00016,-0.00001
2665.07175,-0.00001
2663.14333,-0.00000
2661.21491,-0.00000
2659.28650,-0.00000
2657.35808,-0.00000
2655.42966,-0.00000
2653.50125,-0.00000
2651.57283,-0.00000
2649.64441,-0.00000
2647.71600,-0.00000
2645.78758,-0.00000
2643.85916,-0.00000
2641.93075,0.00000
2640.00233,0.00001
2638.07391,0.00001
2636.14550,0.00001
2634.21708,0.00000
2632.28866,-0.00000
2630.36025,-0.00001
2628.43183,-0.00000
2626.50341,0.00000
2624.57500,0.00000
2622.64658,0.00000
2620.71816,-0.00000
2618.78975,-0.00001
2616.86133,-0.00001
2614.93291,-0.00000
2613.00450,-0.00000
2611.07608,-0.00000
2609.14766,-0.00000
2607.21925,-0.00000
2605.29083,0.00000
2603.36241,0.00000
2601.43400,0.00000
2599.50558,0.00000
2597.57716,-0.00000
2595.64875,-0.00000
2593.72033,0.00000
2591.79191,0.00000
2589.86350,0.00000
2587.93508,0.00000
2586.00666,-0.00000
2584.07825,-0.00000
2582.14983,-0.00000
2580.22141,0.00000
2578.29300,0.00001
2576.36458,0.00001
2574.43617,0.00001
2572.50775,0.00000
2570.57933,0.00000
2568.65092,-0.00000
2566.72250,-0.00000
2564.79408,-0.00000
2562.86567,-0.00000
2560.93725,-0.00001
2559.00883,-0.00001
2557.08042,-0.00000
2555.15200,0.00000
2553.22358,0.00000
2551.29517,-0.00000
2549.36675,-0.00000
2547.43833,-0.00000
2545.50992,0.00000
2543.58150,0.00000
2541.65308,0.00001
2539.72467,0.00001
2537.79625,0.00000
2535.86783,-0.00000
2533.93942,-0.00000
2532.01100,0.00000
2530.08258,0.00000
2528.15417,0.00000
2526.22575,0.00001
2524.29733,0.00001
2522.36892,0.00001
2520.44050,0.00000
2518.51208,0.00000
2516.58367,-0.00000
2514.65525,-0.00001
2512.72683,-0.00001
2510.79842,-0.00001
2508.87000,-0.00000
2506.94158,-0.00000
2505.01317,-0.00000
2503.08475,-0.00000
2501.15633,-0.00000
2499.22792,-0.00001
2497.29950,-0.00000
2495.37108,-0.00000
2493.44267,-0.00000
2491.51425,0.00000
2489.58583,0.00000
2487.65742,0.00000
2485.72900,-0.00000
2483.80058,-0.00000
2481.87217,-0.00000
2479.94375,-0.00000
2478.01533,0.00000
2476.08692,0.00001
2474.15850,0.00000
2472.23009,0.00000
2470.30167,-0.00000
2468.37325,-0.00000
2466.44484,-0.00000
2464.51642,-0.00000
2462.58800,0.00000
2460.65959,0.00001
2458.73117,0.00001
2456.80275,0.00001
2454.87434,0.00000
2452.94592,0.00000
2451.01750,0.00000
2449.08909,0.00000
2447.16067,0.00000
2445.23225,0.00000
2443.30384,0.00000
2441.37542,0.00000
2439.44700,-0.00000
2437.51859,-0.00000
2435.59017,-0.00000
2433.66175,0.00000
2431.73334,0.00000
2429.80492,0.00000
2427.87650,0.00000
2425.94809,0.00000
2424.01967,0.00000
2422.09125,0.00000
2420.16284,0.00000
2418.23442,0.00000
2416.30600,0.00000
2414.37759,0.00000
2412.44917,-0.00000
2410.52075,-0.00000
2408.59234,-0.00000
2406.66392,0.00000
2404.73550,0.00000
2402.80709,0.00001
2400.87867,0.00001
2398.95025,0.00000
2397.02184,0.00000
2395.09342,-0.00000
2393.16500,-0.00000
2391.23659,0.00000
2389.30817,0.00000
2387.37975,0.00000
2385.45134,0.00000
2383.52292,-0.00000
2381.59450,-0.00000
2379.66609,-0.00001
2377.73767,-0.00000
2375.80925,0.00000
2373.88084,0.00001
2371.95242,0.00002
2370.02401,0.00002
2368.09559,0.00002
2366.16717,0.00001
2364.23876,-0.00001
2362.31034,-0.00002
2360.38192,-0.00002
2358.45351,-0.00002
2356.52509,-0.00001
2354.59667,-0.00001
2352.66826,0.00000
2350.73984,0.00001
2348.81142,0.00002
2346.88301,0.00003
2344.95459,0.00003
2343.02617,0.00002
2341.09776,-0.00000
2339.16934,-0.00003
2337.24092,-0.00004
2335.31251,-0.00003
2333.38409,-0.00001
2331.45567,0.00001
2329.52726,0.00002
2327.59884,0.00002
2325.67042,0.00001
2323.74201,0.00000
2321.81359,0.00000
2319.88517,0.00000
2317.95676,0.00001
2316.02834,0.00000
2314.09992,-0.00000
2312.17151,-0.00000
2310.24309,-0.00000
2308.31467,0.00000
2306.38626,-0.00000
2304.45784,-0.00000
2302.52942,-0.00000
2300.60101,-0.00000
2298.67259,-0.00000
2296.74417,-0.00000
2294.81576,-0.00000
2292.88734,-0.00000
2290.95892,-0.00001
2289.03051,-0.00001
2287.10209,-0.00001
2285.17367,-0.00001
2283.24526,-0.00001
2281.31684,-0.00001
2279.38842,-0.00001
2277.46001,-0.00000
2275.53159,0.00001
2273.60317,0.00001
2271.67476,0.00001
2269.74634,0.00001
2267.81793,0.00000
2265.88951,-0.00000
2263.96109,0.00000
2262.03268,0.00001
2260.10426,0.00000
2258.17584,-0.00000
2256.24743,-0.00000
2254.31901,-0.00000
2252.39059,0.00000
2250.46218,0.00001
2248.53376,0.00000
2246.60534,-0.00001
2244.67693,-0.00002
2242.74851,-0.00001
2240.82009,-0.00000
2238.89168,0.00001
2236.96326,0.00002
2235.03484,0.00001
2233.10643,0.00000
2231.17801,-0.00001
2229.24959,-0.00001
2227.32118,-0.00000
2225.39276,0.00000
2223.46434,0.00001
2221.53593,0.00001
2219.60751,0.00000
2217.67909,-0.00001
2215.75068,-0.00001
2213.82226,-0.00001
2211.89384,0.00000
2209.96543,0.00001
2208.03701,0.00001
2206.10859,0.00001
2204.18018,0.00000
2202.25176,-0.00001
2200.32334,-0.00002
2198.39493,-0.00002
2196.46651,-0.00002
2194.53809,-0.00001
2192.60968,-0.00000
2190.68126,0.00001
2188.75284,0.00002
2186.82443,0.00003
2184.89601,0.00002
2182.96759,-0.00001
2181.03918,-0.00004
2179.11076,-0.00005
2177.18234,-0.00004
2175.25393,-0.00002
2173.32551,0.00001
2171.39710,0.00002
2169.46868,-0.00001
2167.54026,-0.00005
2165.61185,-0.00007
2163.68343,-0.00004
2161.75501,0.00003
2159.82660,0.00011
2157.89818,0.00015
2155.96976,0.00014
2154.04135,0.00010
2152.11293,0.00005
2150.18451,0.00001
2148.25610,0.00001
2146.32768,0.00001
2144.39926,0.00002
2142.47085,0.00001
2140.54243,0.00001
2138.61401,0.00002
2136.68560,0.00002
2134.75718,0.00002
2132.82876,-0.00000
2130.90035,-0.00003
2128.97193,-0.00005
2127.04351,-0.00006
2125.11510,-0.00005
2123.18668,-0.00004
2121.25826,-0.00004
2119.32985,-0.00004
2117.40143,-0.00004
2115.47301,-0.00004
2113.54460,-0.00003
2111.61618,-0.00002
2109.68776,-0.00000
2107.75935,0.00001
2105.83093,0.00001
2103.90251,0.00000
2101.97410,-0.00000
2100.04568,-0.00000
2098.11726,0.00000
2096.18885,0.00001
2094.26043,0.00000
2092.33201,-0.00000
2090.40360,-0.00001
2088.47518,-0.00002
2086.54676,-0.00003
2084.61835,-0.00003
2082.68993,-0.00003
2080.76151,-0.00002
2078.83310,-0.00001
2076.90468,-0.00001
2074.97626,-0.00001
2073.04785,-0.00001
2071.11943,-0.00001
2069.19102,0.00000
2067.26260,0.00001
2065.33418,0.00001
2063.40577,0.00001
2061.47735,-0.00000
2059.54893,-0.00001
2057.62052,-0.00003
2055.69210,-0.00005
2053.76368,-0.00006
2051.83527,-0.00004
2049.90685,-0.00001
2047.97843,0.00002
2046.05002,0.00004
2044.12160,0.00004
2042.19318,0.00001
2040.26477,-0.00002
2038.33635,-0.00001
2036.40793,0.00003
2034.47952,0.00007
2032.55110,0.00010
2030.62268,0.00010
2028.69427,0.00007
2026.76585,0.00003
2024.83743,-0.00000
2022.90902,-0.00000
2020.98060,-0.00000
2019.05218,-0.00001
2017.12377,-0.00001
2015.19535,-0.00001
2013.26693,-0.00001
2011.33852,0.00002
2009.41010,0.00005
2007.48168,0.00006
2005.55327,0.00004
2003.62485,-0.00000
2001.69643,-0.00005
1999.76802,-0.00007
1997.83960,-0.00007
1995.91118,-0.00004
1993.98277,-0.00002
1992.05435,-0.00001
1990.12593,-0.00001
1988.19752,-0.00004
1986.26910,-0.00007
1984.34068,-0.00007
1982.41227,-0.00004
1980.48385,0.00000
1978.55543,0.00006
1976.62702,0.00010
1974.69860,0.00010
1972.77018,0.00008
1970.84177,0.00005
1968.91335,0.00003
1966.98494,0.00003
1965.05652,0.00002
1963.12810,0.00001
1961.19969,-0.00000
1959.27127,-0.00002
1957.34285,-0.00003
1955.41444,-0.00004
1953.48602,-0.00004
1951.55760,-0.00004
1949.62919,-0.00002
1947.70077,0.00000
1945.77235,0.00002
1943.84394,0.00002
1941.91552,0.00002
1939.98710,0.00001
1938.05869,-0.00001
1936.13027,-0.00001
1934.20185,-0.00002
1932.27344,-0.00001
1930.34502,-0.00001
1928.41660,-0.00002
1926.48819,-0.00002
1924.55977,-0.00001
1922.63135,-0.00000
1920.70294,0.00001
1918.77452,0.00000
1916.84610,-0.00000
1914.91769,-0.00001
1912.98927,-0.00001
1911.06085,-0.00001
1909.13244,-0.00000
1907.20402,0.00000
1905.27560,0.00000
1903.34719,-0.00000
1901.41877,-0.00000
1899.49035,-0.00000
1897.56194,-0.00000
1895.63352,0.00000
1893.70510,0.00000
1891.77669,0.00000
1889.84827,-0.00000
1887.91985,-0.00000
1885.99144,-0.00001
1884.06302,-0.00001
1882.13460,-0.00001
1880.20619,-0.00001
1878.27777,-0.00001
1876.34935,-0.00001
1874.42094,0.00000
1872.49252,0.00001
1870.56410,0.00002
1868.63569,0.00002
1866.70727,0.00001
1864.77886,0.00000
1862.85044,-0.00000
1860.92202,-0.00000
1858.99361,0.00000
1857.06519,0.00001
1855.13677,0.00000
1853.20836,0.00000
1851.27994,-0.00000
1849.35152,0.00000
1847.42311,0.00000
1845.49469,0.00000
1843.56627,0.00001
1841.63786,0.00001
1839.70944,0.00000
1837.78102,-0.00000
1835.85261,-0.00000
1833.92419,0.00000
1831.99577,0.00000
1830.06736,0.00000
1828.13894,0.00000
1826.21052,0.00000
1824.28211,0.00000
1822.35369,0.00000
1820.42527,0.00001
1818.49686,0.00001
1816.56844,0.00001
1814.64002,0.00000
1812.71161,-0.00000
1810.78319,-0.00001
1808.85477,-0.00001
1806.92636,-0.00000
1804.99794,0.00000
1803.06952,0.00000
1801.14111,0.00000
1799.21269,0.00000
1797.28427,-0.00000
1795.35586,-0.00001
1793.42744,-0.00001
1791.49902,-0.00000
1789.57061,0.00000
1787.64219,0.00001
1785.71377,0.00001
1783.78536,0.00001
1781.85694,0.00001
1779.92852,0.00001
1778.00011,0.00001
1776.07169,0.00002
1774.14327,0.00002
1772.21486,0.00002
1770.28644,0.00003
1768.35802,0.00004
1766.42961,0.00006
1764.50119,0.00009
1762.57278,0.00011
1760.64436,0.00011
1758.71594,0.00012
1756.78753,0.00012
1754.85911,0.00011
1752.93069,0.00007
1751.00228,0.00000
1749.07386,-0.00006
1747.14544,-0.00011
1745.21703,-0.00014
1743.28861,-0.00015
1741.36019,-0.00014
1739.43178,-0.00014
1737.50336,-0.00013
1735.57494,-0.00010
1733.64653,-0.00006
1731.71811,0.00000
1729.78969,0.00006
1727.86128,0.00011
1725.93286,0.00016
1724.00444,0.00025
1722.07603,0.00032
1720.14761,0.00034
1718.21919,0.00034
1716.29078,0.00034
1714.36236,0.00039
1712.43394,0.00050
1710.50553,0.00061
1708.57711,0.00079
1706.64869,0.00111
1704.72028,0.00136
1702.79186,0.00155
1700.86344,0.00149
1698.93503,0.00112
1697.00661,0.00068
1695.07819,0.00019
1693.14978,-0.00004
1691.22136,0.00043
1689.29294,0.00085
1687.36453,0.00083
1685.43611,0.00039
1683.50769,-0.00005
1681.57928,-0.00015
1679.65086,-0.00017
1677.72244,0.00026
1675.79403,0.00124
1673.86561,0.00151
1671.93719,0.00120
1670.00878,0.00120
1668.08036,0.00144
1666.15195,0.00133
1664.22353,0.00066
1662.29511,0.00017
1660.36670,0.00058
1658.43828,0.00021
1656.50986,-0.00093
1654.58145,-0.00179
1652.65303,-0.00258
1650.72461,-0.00351
1648.79620,-0.00395
1646.86778,-0.00337
1644.93936,-0.00194
1643.01095,-0.00153
1641.08253,-0.00189
1639.15411,-0.00207
1637.22570,-0.00234
1635.29728,-0.00285
1633.36886,-0.00317
1631.44045,-0.00328
1629.51203,-0.00320
1627.58361,-0.00261
1625.65520,-0.00175
1623.72678,-0.00114
1621.79836,-0.00062
1619.86995,-0.00003
1617.94153,0.00044
1616.01311,0.00063
1614.08470,0.00084
1612.15628,0.00136
1610.22786,0.00167
1608.29945,0.00162
1606.37103,0.00180
1604.44261,0.00207
1602.51420,0.00205
1600.58578,0.00181
1598.65736,0.00156
1596.72895,0.00135
1594.80053,0.00118
1592.87211,0.00106
1590.94370,0.00100
1589.01528,0.00094
1587.08686,0.00084
1585.15845,0.00074
1583.23003,0.00077
1581.30161,0.00076
1579.37320,0.00065
1577.44478,0.00061
1575.51636,0.00063
1573.58795,0.00060
1571.65953,0.00054
1569.73111,0.00044
1567.80270,0.00057
1565.87428,0.00147
1563.94587,0.00221
1562.01745,0.00245
1560.08903,0.00227
1558.16062,0.00173
1556.23220,0.00100
1554.30378,0.00008
1552.37537,-0.00050
1550.44695,-0.00041
1548.51853,-0.00072
1546.59012,-0.00134
1544.66170,-0.00205
1542.73328,-0.00269
1540.80487,-0.00320
1538.87645,-0.00356
1536.94803,-0.00346
1535.01962,-0.00292
1533.09120,-0.00222
1531.16278,-0.00157
1529.23437,-0.00113
1527.30595,-0.00063
1525.37753,-0.00006
1523.44912,0.00029
1521.52070,0.00021
1519.59228,-0.00034
1517.66387,-0.00110
1515.73545,-0.00200
1513.80703,-0.00338
1511.87862,-0.00363
1509.95020,-0.00245
1508.02178,-0.00076
1506.09337,0.00068
1504.16495,0.00144
1502.23653,0.00161
1500.30812,0.00114
1498.37970,0.00014
1496.45128,-0.00011
1494.52287,0.00027
1492.59445,0.00080
1490.66603,0.00125
1488.73762,0.00158
1486.80920,0.00204
1484.88078,0.00252
1482.95237,0.00263
1481.02395,0.00251
1479.09553,0.00250
1477.16712,0.00229
1475.23870,0.00163
1473.31028,0.00070
1471.38187,-0.00018
1469.45345,-0.00074
1467.52503,-0.00083
1465.59662,-0.00032
1463.66820,0.00045
1461.73979,0.00067
1459.81137,0.00032
1457.88295,-0.00030
1455.95454,-0.00092
1454.02612,-0.00131
1452.09770,-0.00133
1450.16929,-0.00093
1448.24087,-0.00045
1446.31245,-0.00030
1444.38404,-0.00045
1442.45562,-0.00073
1440.52720,-0.00086
1438.59879,-0.00078
1436.67037,-0.00045
1434.74195,0.00010
1432.81354,0.00074
1430.88512,0.00124
1428.95670,0.00142
1427.02829,0.00137
1425.09987,0.00126
1423.17145,0.00099
1421.24304,0.00069
1419.31462,0.00051
1417.38620,0.00048
1415.45779,0.00052
1413.52937,0.00058
1411.60095,0.00060
1409.67254,0.00043
1407.74412,-0.00000
1405.81570,-0.00053
1403.88729,-0.00102
1401.95887,-0.00142
1400.03045,-0.00166
1398.10204,-0.00164
1396.17362,-0.00145
1394.24520,-0.00128
1392.31679,-0.00112
1390.38837,-0.00097
1388.45995,-0.00085
1386.53154,-0.00073
1384.60312,-0.00050
1382.67470,-0.00015
1380.74629,0.00023
1378.81787,0.00060
1376.88945,0.00092
1374.96104,0.00104
1373.03262,0.00091
1371.10420,0.00059
1369.17579,0.00026
1367.24737,0.00005
1365.31895,0.00004
1363.39054,0.00020
1361.46212,0.00039
1359.53371,0.00047
1357.60529,0.00044
1355.67687,0.00032
1353.74846,0.00022
1351.82004,0.00015
1349.89162,0.00011
1347.96321,0.00005
1346.03479,-0.00002
1344.10637,-0.00006
1342.17796,-0.00006
1340.24954,-0.00000
1338.32112,0.00011
1336.39271,0.00025
1334.46429,0.00040
1332.53587,0.00052
1330.60746,0.00058
1328.67904,0.00057
1326.75062,0.00049
1324.82221,0.00034
1322.89379,0.00013
1320.96537,-0.00010
1319.03696,-0.00031
1317.10854,-0.00048
1315.18012,-0.00058
1313.25171,-0.00060
1311.32329,-0.00053
1309.39487,-0.00042
1307.46646,-0.00031
1305.53804,-0.00021
1303.60962,-0.00014
1301.68121,-0.00011
1299.75279,-0.00009
1297.82437,-0.00008
1295.89596,-0.00008
1293.96754,-0.00008
1292.03912,-0.00009
1290.11071,-0.00008
1288.18229,-0.00005
1286.25387,0.00000
1284.32546,0.00006
1282.39704,0.00010
1280.46862,0.00012
1278.54021,0.00014
1276.61179,0.00015
1274.68337,0.00016
1272.75496,0.00016
1270.82654,0.00014
1268.89812,0.00012
1266.96971,0.00011
1265.04129,0.00012
1263.11287,0.00016
1261.18446,0.00021
1259.25604,0.00027
1257.32763,0.00030
1255.39921,0.00030
1253.47079,0.00025
1251.54238,0.00015
1249.61396,-0.00002
1247.68554,-0.00021
1245.75713,-0.00041
1243.82871,-0.00058
1241.90029,-0.00071
1239.97188,-0.00077
1238.04346,-0.00078
1236.11504,-0.00075
1234.18663,-0.00070
1232.25821,-0.00063
1230.32979,-0.00054
1228.40138,-0.00043
1226.47296,-0.00031
1224.54454,-0.00018
1222.61613,-0.00005
1220.68771,0.00010
1218.75929,0.00024
1216.83088,0.00036
1214.90246,0.00045
1212.97404,0.00048
1211.04563,0.00045
1209.11721,0.00036
1207.18879,0.00027
1205.26038,0.00021
1203.33196,0.00020
1201.40354,0.00024
1199.47513,0.00028
1197.54671,0.00030
1195.61829,0.00027
1193.68988,0.00021
1191.76146,0.00017
1189.83304,0.00018
1187.90463,0.00027
1185.97621,0.00044
1184.04779,0.00062
1182.11938,0.00072
1180.19096,0.00066
1178.26254,0.00039
1176.33413,-0.00003
1174.40571,-0.00047
1172.47729,-0.00078
1170.54888,-0.00086
1168.62046,-0.00074
1166.69204,-0.00050
1164.76363,-0.00028
1162.83521,-0.00014
1160.90680,-0.00009
1158.97838,-0.00010
1157.04996,-0.00013
1155.12155,-0.00015
1153.19313,-0.00015
1151.26471,-0.00010
1149.33630,0.00000
1147.40788,0.00016
1145.47946,0.00034
1143.55105,0.00050
1141.62263,0.00061
1139.69421,0.00066
1137.76580,0.00062
1135.83738,0.00050
1133.90896,0.00031
1131.98055,0.00007
1130.05213,-0.00014
1128.12371,-0.00027
1126.19530,-0.00031
1124.26688,-0.00027
1122.33846,-0.00020
1120.41005,-0.00013
1118.48163,-0.00009
1116.55321,-0.00005
1114.62480,-0.00002
1112.69638,-0.00001
1110.76796,-0.00002
1108.83955,-0.00008
1106.91113,-0.00016
1104.98271,-0.00019
1103.05430,-0.00017
1101.12588,-0.00006
1099.19746,0.00008
1097.26905,0.00024
1095.34063,0.00036
1093.41221,0.00043
1091.48380,0.00043
1089.55538,0.00034
1087.62696,0.00017
1085.69855,-0.00006
1083.77013,-0.00031
1081.84171,-0.00052
1079.91330,-0.00062
1077.98488,-0.00062
1076.05646,-0.00053
1074.12805,-0.00039
1072.19963,-0.00024
1070.27121,-0.00012
1068.34280,-0.00001
1066.41438,0.00007
1064.48596,0.00013
1062.55755,0.00016
1060.62913,0.00015
1058.70072,0.00011
1056.77230,0.00004
1054.84388,-0.00002
1052.91547,-0.00006
1050.98705,-0.00007
1049.05863,-0.00006
1047.13022,-0.00004
1045.20180,-0.00002
1043.27338,-0.00000
1041.34497,0.00002
1039.41655,0.00002
1037.48813,-0.00003
1035.55972,-0.00016
1033.63130,-0.00032
1031.70288,-0.00044
1029.77447,-0.00047
1027.84605,-0.00037
1025.91763,-0.00017
1023.98922,0.00005
1022.06080,0.00021
1020.13238,0.00025
1018.20397,0.00021
1016.27555,0.00012
1014.34713,0.00004
1012.41872,-0.00001
1010.49030,0.00000
1008.56188,0.00006
1006.63347,0.00014
1004.70505,0.00022
1002.77663,0.00026
1000.84822,0.00026
998.91980,0.00023
996.99138,0.00018
995.06297,0.00012
993.13455,0.00004
991.20613,-0.00002
989.27772,-0.00006
987.34930,-0.00006
985.42088,-0.00004
983.49247,-0.00001
981.56405,0.00004
979.63563,0.00007
977.70722,0.00009
975.77880,0.00007
973.85038,0.00004
971.92197,0.00001
969.99355,-0.00000
968.06513,0.00001
966.13672,0.00003
964.20830,0.00007
962.27988,0.00010
960.35147,0.00012
958.42305,0.00013
956.49464,0.00013
954.56622,0.00013
952.63780,0.00013
950.70939,0.00014
948.78097,0.00015
946.85255,0.00016
944.92414,0.00015
942.99572,0.00009
941.06730,0.00001
939.13889,-0.00010
937.21047,-0.00019
935.28205,-0.00024
933.35364,-0.00024
931.42522,-0.00021
929.49680,-0.00018
927.56839,-0.00015
925.63997,-0.00014
923.71155,-0.00013
921.78314,-0.00011
919.85472,-0.00005
917.92630,0.00003
915.99789,0.00010
914.06947,0.00016
912.14105,0.00018
910.21264,0.00019
908.28422,0.00016
906.35580,0.00013
904.42739,0.00008
902.49897,0.00002
900.57055,-0.00005
898.64214,-0.00008
896.71372,-0.00008
894.78530,-0.00009
892.85689,-0.00011
890.92847,-0.00011
889.00005,-0.00010
887.07164,-0.00009
885.14322,-0.00007
883.21480,-0.00005
881.28639,-0.00003
879.35797,-0.00006
877.42955,-0.00008
875.50114,-0.00007
873.57272,-0.00002
871.64430,0.00004
869.71589,0.00012
867.78747,0.00019
865.85905,0.00025
863.93064,0.00029
862.00222,0.00031
860.07380,0.00030
858.14539,0.00025
856.21697,0.00016
854.28856,0.00005
852.36014,-0.00003
850.43172,-0.00005
848.50331,-0.00003
846.57489,0.00000
844.64647,0.00002
842.71806,-0.00002
840.78964,-0.00011
838.86122,-0.00020
836.93281,-0.00027
835.00439,-0.00029
833.07597,-0.00027
831.14756,-0.00022
829.21914,-0.00014
827.29072,-0.00007
825.36231,-0.00001
823.43389,0.00003
821.50547,0.00007
819.57706,0.00009
817.64864,0.00010
815.72022,0.00011
813.79181,0.00010
811.86339,0.00008
809.93497,0.00007
808.00656,0.00007
806.07814,0.00008
804.14972,0.00009
802.22131,0.00009
800.29289,0.00009
798.36447,0.00009
796.43606,0.00009
794.50764,0.00003
792.57922,-0.00006
790.65081,-0.00013
788.72239,-0.00018
786.79397,-0.00018
784.86556,-0.00015
782.93714,-0.00009
781.00872,-0.00005
779.08031,-0.00005
777.15189,-0.00005
775.22347,-0.00003
773.29506,-0.00002
771.36664,0.00000
769.43822,0.00002
767.50981,0.00005
765.58139,0.00008
763.65297,0.00013
761.72456,0.00018
759.79614,0.00022
757.86772,0.00025
755.93931,0.00024
754.01089,0.00019
752.08248,0.00008
750.15406,-0.00008
748.22564,-0.00025
746.29723,-0.00040
744.36881,-0.00053
742.44039,-0.00058
740.51198,-0.00053
738.58356,-0.00039
736.65514,-0.00019
734.72673,0.00002
732.79831,0.00021
730.86989,0.00033
728.94148,0.00034
727.01306,0.00031
725.08464,0.00023
723.15623,0.00015
721.22781,0.00010
719.29939,0.00011
717.37098,0.00018
715.44256,0.00031
713.51414,0.00045
711.58573,0.00053
709.65731,0.00049
707.72889,0.00030
705.80048,-0.00005
703.87206,-0.00005
701.94364,-0.00005
700.01523,-0.00005
698.08681,-0.00005
