3997.69561,-0.00000
3995.76715,-0.00000
3993.83869,-0.00000
3991.91023,-0.00000
3989.98177,-0.00000
3988.05331,-0.00000
3986.12485,-0.00000
3984.19640,-0.00000
3982.26794,-0.00000
3980.33948,-0.00000
3978.41102,-0.00000
3976.48256,-0.00000
3974.55410,0.00000
3972.62564,0.00000
3970.69718,0.00000
3968.76872,0.00000
3966.84026,0.00000
3964.91180,0.00000
3962.98335,0.00000
3961.05489,0.00000
3959.12643,0.00000
3957.19797,-0.00000
3955.26951,-0.00000
3953.34105,-0.00001
3951.41259,-0.00001
3949.48413,-0.00000
3947.55567,-0.00000
3945.62721,-0.00000
3943.69876,0.00000
3941.77030,0.00000
3939.84184,0.00001
3937.91338,0.00001
3935.98492,0.00001
3934.05646,0.00000
3932.12800,-0.00000
3930.19954,-0.00000
3928.27108,-0.00001
3926.34262,-0.00001
3924.41416,-0.00001
3922.48571,-0.00001
3920.55725,-0.00001
3918.62879,-0.00000
3916.70033,0.00000
3914.77187,0.00001
3912.84341,0.00002
3910.91495,0.00002
3908.98649,0.00001
3907.05803,0.00000
3905.12957,-0.00001
3903.20112,-0.00001
3901.27266,-0.00001
3899.34420,-0.00001
3897.41574,-0.00000
3895.48728,0.00000
3893.55882,0.00000
3891.63036,0.00001
3889.70190,0.00001
3887.77344,0.00000
3885.84498,0.00000
3883.91652,-0.00000
3881.98807,0.00000
3880.05961,0.00000
3878.13115,0.00001
3876.20269,0.00001
3874.27423,0.00000
3872.34577,-0.00000
3870.41731,-0.00001
3868.48885,-0.00002
3866.56039,-0.00001
3864.63193,0.00000
3862.70348,0.00002
3860.77502,0.00002
3858.84656,0.00002
3856.91810,-0.00000
3854.98964,-0.00002
3853.06118,-0.00003
3851.13272,-0.00002
3849.20426,0.00000
3847.27580,0.00003
3845.34734,0.00003
3843.41888,0.00002
3841.49043,-0.00000
3839.56197,-0.00003
3837.63351,-0.00003
3835.70505,-0.00002
3833.77659,-0.00000
3831.84813,0.00002
3829.91967,0.00003
3827.99121,0.00003
3826.06275,0.00002
3824.13429,-0.00000
3822.20584,-0.00002
3820.27738,-0.00003
3818.34892,-0.00003
3816.42046,-0.00001
3814.49200,0.00001
3812.56354,0.00003
3810.63508,0.00004
3808.70662,0.00003
3806.77816,0.00001
3804.84970,-0.00001
3802.92124,-0.00003
3800.99279,-0.00004
3799.06433,-0.00003
3797.13587,-0.00002
3795.20741,0.00000
3793.27895,0.00002
3791.35049,0.00002
3789.42203,0.00002
3787.49357,0.00001
3785.56511,0.00000
3783.63665,-0.00000
3781.70820,-0.00000
3779.77974,0.00000
3777.85128,0.00001
3775.92282,0.00001
3773.99436,0.00000
3772.06590,0.00000
3770.13744,-0.00000
3768.20898,-0.00000
3766.28052,-0.00000
3764.35206,0.00000
3762.42360,0.00001
3760.49515,0.00001
3758.56669,0.00002
3756.63823,0.00001
3754.70977,-0.00000
3752.78131,-0.00002
3750.85285,-0.00003
3748.92439,-0.00003
3746.99593,-0.00002
3745.06747,-0.00000
3743.13901,0.00001
3741.21056,0.00002
3739.28210,0.00001
3737.35364,0.00000
3735.42518,-0.00001
3733.49672,-0.00001
3731.56826,-0.00000
3729.63980,0.00000
3727.71134,0.00001
3725.78288,0.00001
3723.85442,0.00001
3721.92596,0.00000
3719.99751,0.00001
3718.06905,0.00001
3716.14059,0.00000
3714.21213,-0.00000
3712.28367,-0.00001
3710.35521,-0.00001
3708.42675,-0.00001
3706.49829,0.00000
3704.56983,0.00002
3702.64137,0.00003
3700.71292,0.00004
3698.78446,0.00004
3696.85600,0.00004
3694.92754,0.00003
3692.99908,0.00001
3691.07062,-0.00001
3689.14216,-0.00002
3687.21370,-0.00001
3685.28524,0.00002
3683.35678,0.00005
3681.42832,0.00006
3679.49987,0.00006
3677.57141,0.00004
3675.64295,0.00001
3673.71449,-0.00001
3671.78603,-0.00001
3669.85757,-0.00000
3667.92911,0.00002
3666.00065,0.00004
3664.07219,0.00005
3662.14373,0.00006
3660.21528,0.00006
3658.28682,0.00005
3656.35836,0.00005
3654.42990,0.00004
3652.50144,0.00003
3650.57298,0.00000
3648.64452,-0.00002
3646.71606,-0.00003
3644.78760,-0.00003
3642.85914,-0.00001
3640.93068,0.00002
3639.00223,0.00004
3637.07377,0.00006
3635.14531,0.00006
3633.21685,0.00005
3631.28839,0.00002
3629.35993,0.00000
3627.43147,-0.00001
3625.50301,-0.00001
3623.57455,0.00000
3621.64609,0.00001
3619.71764,0.00001
3617.78918,0.00001
3615.86072,0.00000
3613.93226,0.00000
3612.00380,0.00001
3610.07534,0.00001
3608.14688,0.00001
3606.21842,0.00001
3604.28996,0.00001
3602.36150,0.00001
3600.43304,0.00001
3598.50459,0.00002
3596.57613,0.00002
3594.64767,0.00003
3592.71921,0.00003
3590.79075,0.00003
3588.86229,0.00002
3586.93383,0.00000
3585.00537,-0.00001
3583.07691,-0.00001
3581.14845,-0.00001
3579.22000,0.00001
3577.29154,0.00002
3575.36308,0.00003
3573.43462,0.00004
3571.50616,0.00005
3569.57770,0.00003
3567.64924,0.00001
3565.72078,-0.00001
3563.79232,-0.00002
3561.86386,-0.00002
3559.93540,-0.00000
3558.00695,0.00002
3556.07849,0.00003
3554.15003,0.00003
3552.22157,0.00003
3550.29311,0.00001
3548.36465,-0.00000
3546.43619,-0.00001
3544.50773,-0.00002
3542.57927,-0.00002
3540.65081,-0.00001
3538.72236,-0.00000
3536.79390,0.00001
3534.86544,0.00002
3532.93698,0.00002
3531.00852,0.00002
3529.08006,0.00001
3527.15160,0.00000
3525.22314,-0.00001
3523.29468,-0.00001
3521.36622,-0.00001
3519.43776,-0.00001
3517.50931,-0.00000
3515.58085,0.00000
3513.65239,0.00001
3511.72393,0.00001
3509.79547,0.00001
3507.86701,0.00001
3505.93855,0.00000
3504.01009,-0.00001
3502.08163,-0.00001
3500.15317,-0.00002
3498.22472,-0.00002
3496.29626,-0.00002
3494.36780,-0.00001
3492.43934,-0.00001
3490.51088,-0.00000
3488.58242,-0.00000
3486.65396,-0.00000
3484.72550,-0.00001
3482.79704,-0.00001
3480.86858,-0.00002
3478.94012,-0.00001
3477.01167,-0.00001
3475.08321,-0.00000
3473.15475,-0.00000
3471.22629,-0.00001
3469.29783,-0.00002
3467.36937,-0.00003
3465.44091,-0.00004
3463.51245,-0.00003
3461.58399,-0.00002
3459.65553,-0.00001
3457.72707,-0.00000
3455.79862,0.00000
3453.87016,0.00001
3451.94170,0.00000
3450.01324,-0.00000
3448.08478,-0.00001
3446.15632,-0.00001
3444.22786,-0.00001
3442.29940,-0.00000
3440.37094,-0.00000
3438.44248,-0.00001
3436.51403,-0.00002
3434.58557,-0.00003
3432.65711,-0.00004
3430.72865,-0.00004
3428.80019,-0.00003
3426.87173,-0.00001
3424.94327,-0.00000
3423.01481,0.00001
3421.08635,0.00001
3419.15789,0.00001
3417.22943,0.00000
3415.30098,-0.00001
3413.37252,-0.00001
3411.44406,-0.00002
3409.51560,-0.00001
3407.58714,-0.00001
3405.65868,-0.00000
3403.73022,-0.00000
3401.80176,-0.00001
3399.87330,-0.00001
3397.94484,-0.00001
3396.01639,-0.00001
3394.08793,-0.00000
3392.15947,0.00001
3390.23101,0.00002
3388.30255,0.00002
3386.37409,0.00003
3384.44563,0.00003
3382.51717,0.00003
3380.58871,0.00003
3378.66025,0.00003
3376.73179,0.00002
3374.80334,0.00002
3372.87488,0.00002
3370.94642,0.00002
3369.01796,0.00002
3367.08950,0.00001
3365.16104,0.00001
3363.23258,0.00001
3361.30412,0.00001
3359.37566,0.00000
3357.44720,0.00001
3355.51875,0.00001
3353.59029,0.00002
3351.66183,0.00002
3349.73337,0.00002
3347.80491,0.00003
3345.87645,0.00004
3343.94799,0.00005
3342.01953,0.00007
3340.09107,0.00008
3338.16261,0.00008
3336.23415,0.00008
3334.30570,0.00007
3332.37724,0.00006
3330.44878,0.00007
3328.52032,0.00009
3326.59186,0.00010
3324.66340,0.00010
3322.73494,0.00009
3320.80648,0.00006
3318.87802,0.00003
3316.94956,0.00000
3315.02111,-0.00001
3313.09265,-0.00001
3311.16419,0.00000
3309.23573,0.00001
3307.30727,0.00001
3305.37881,-0.00001
3303.45035,-0.00005
3301.52189,-0.00010
3299.59343,-0.00012
3297.66497,-0.00013
3295.73651,-0.00012
3293.80806,-0.00012
3291.87960,-0.00014
3289.95114,-0.00018
3288.02268,-0.00023
3286.09422,-0.00028
3284.16576,-0.00031
3282.23730,-0.00033
3280.30884,-0.00033
3278.38038,-0.00030
3276.45192,-0.00027
3274.52347,-0.00022
3272.59501,-0.00019
3270.66655,-0.00018
3268.73809,-0.00019
3266.80963,-0.00022
3264.88117,-0.00023
3262.95271,-0.00022
3261.02425,-0.00019
3259.09579,-0.00014
3257.16733,-0.00008
3255.23887,-0.00004
3253.31042,-0.00000
3251.38196,0.00003
3249.45350,0.00005
3247.52504,0.00007
3245.59658,0.00007
3243.66812,0.00006
3241.73966,0.00005
3239.81120,0.00005
3237.88274,0.00007
3235.95428,0.00010
3234.02583,0.00012
3232.09737,0.00012
3230.16891,0.00010
3228.24045,0.00006
3226.31199,0.00003
3224.38353,0.00001
3222.45507,0.00001
3220.52661,0.00002
3218.59815,0.00003
3216.66969,0.00003
3214.74123,0.00002
3212.81278,0.00001
3210.88432,-0.00000
3208.95586,-0.00001
3207.02740,-0.00002
3205.09894,-0.00002
3203.17048,-0.00003
3201.24202,-0.00004
3199.31356,-0.00005
3197.38510,-0.00005
3195.45664,-0.00004
3193.52819,-0.00003
3191.59973,-0.00003
3189.67127,-0.00003
3187.74281,-0.00003
3185.81435,-0.00003
3183.88589,-0.00003
3181.95743,-0.00003
3180.02897,-0.00003
3178.10051,-0.00002
3176.17205,-0.00001
3174.24359,-0.00001
3172.31514,-0.00000
3170.38668,0.00000
3168.45822,0.00001
3166.52976,0.00001
3164.60130,0.00000
3162.67284,0.00000
3160.74438,0.00000
3158.81592,0.00002
3156.88746,0.00004
3154.95900,0.00006
3153.03055,0.00007
3151.10209,0.00007
3149.17363,0.00005
3147.24517,0.00003
3145.31671,0.00002
3143.38825,0.00004
3141.45979,0.00006
3139.53133,0.00008
3137.60287,0.00008
3135.67441,0.00007
3133.74595,0.00005
3131.81750,0.00004
3129.88904,0.00003
3127.96058,0.00003
3126.03212,0.00004
3124.10366,0.00006
3122.17520,0.00008
3120.24674,0.00011
3118.31828,0.00013
3116.38982,0.00013
3114.46136,0.00012
3112.53291,0.00010
3110.60445,0.00008
3108.67599,0.00006
3106.74753,0.00006
3104.81907,0.00006
3102.89061,0.00005
3100.96215,0.00005
3099.03369,0.00004
3097.10523,0.00002
3095.17677,0.00001
3093.24831,-0.00000
3091.31986,-0.00001
3089.39140,0.00000
3087.46294,0.00001
3085.53448,0.00002
3083.60602,0.00003
3081.67756,0.00003
3079.74910,0.00001
3077.82064,-0.00001
3075.89218,-0.00004
3073.96372,-0.00007
3072.03527,-0.00008
3070.10681,-0.00008
3068.17835,-0.00008
3066.24989,-0.00009
3064.32143,-0.00011
3062.39297,-0.00014
3060.46451,-0.00015
3058.53605,-0.00014
3056.60759,-0.00011
3054.67913,-0.00008
3052.75067,-0.00005
3050.82222,-0.00002
3048.89376,-0.00001
3046.96530,0.00001
3045.03684,0.00002
3043.10838,0.00003
3041.17992,0.00003
3039.25146,0.00003
3037.32300,0.00002
3035.39454,0.00001
3033.46608,-0.00001
3031.53763,-0.00003
3029.60917,-0.00005
3027.68071,-0.00006
3025.75225,-0.00006
3023.82379,-0.00003
3021.89533,0.00002
3019.96687,0.00006
3018.03841,0.00010
3016.10995,0.00012
3014.18149,0.00012
3012.25303,0.00011
3010.32458,0.00009
3008.39612,0.00006
3006.46766,0.00006
3004.53920,0.00007
3002.61074,0.00011
3000.68228,0.00016
2998.75382,0.00022
2996.82536,0.00026
2994.89690,0.00029
2992.96844,0.00028
2991.03999,0.00025
2989.11153,0.00020
2987.18307,0.00017
2985.25461,0.00016
2983.32615,0.00016
2981.39769,0.00018
2979.46923,0.00020
2977.54077,0.00019
2975.61231,0.00016
2973.68385,0.00009
2971.75539,0.00001
2969.82694,-0.00010
2967.89848,-0.00023
2965.97002,-0.00036
2964.04156,-0.00050
2962.11310,-0.00060
2960.18464,-0.00065
2958.25618,-0.00062
2956.32772,-0.00049
2954.39926,-0.00029
2952.47080,-0.00004
2950.54235,0.00021
2948.61389,0.00042
2946.68543,0.00054
2944.75697,0.00053
2942.82851,0.00042
2940.90005,0.00023
2938.97159,0.00001
2937.04313,-0.00018
2935.11467,-0.00031
2933.18621,-0.00038
2931.25775,-0.00042
2929.32930,-0.00044
2927.40084,-0.00045
2925.47238,-0.00046
2923.54392,-0.00043
2921.61546,-0.00037
2919.68700,-0.00026
2917.75854,-0.00013
2915.83008,-0.00000
2913.90162,0.00010
2911.97316,0.00016
2910.04471,0.00019
2908.11625,0.00019
2906.18779,0.00016
2904.25933,0.00014
2902.33087,0.00012
2900.40241,0.00012
2898.47395,0.00013
2896.54549,0.00015
2894.61703,0.00018
2892.68857,0.00021
2890.76011,0.00023
2888.83166,0.00025
2886.90320,0.00027
2884.97474,0.00027
2883.04628,0.00024
2881.11782,0.00016
2879.18936,0.00003
2877.26090,-0.00013
2875.33244,-0.00030
2873.40398,-0.00044
2871.47552,-0.00050
2869.54707,-0.00046
2867.61861,-0.00031
2865.69015,-0.00009
2863.76169,0.00012
2861.83323,0.00024
2859.90477,0.00024
2857.97631,0.00011
2856.04785,-0.00007
2854.11939,-0.00023
2852.19093,-0.00030
2850.26247,-0.00026
2848.33402,-0.00014
2846.40556,0.00001
2844.47710,0.00014
2842.54864,0.00023
2840.62018,0.00026
2838.69172,0.00025
2836.76326,0.00021
2834.83480,0.00016
2832.90634,0.00011
2830.97788,0.00006
2829.04942,0.00002
2827.12097,0.00001
2825.19251,0.00001
2823.26405,0.00001
2821.33559,0.00001
2819.40713,0.00001
2817.47867,0.00000
2815.55021,0.00001
2813.62175,0.00001
2811.69329,0.00002
2809.76483,0.00002
2807.83638,0.00001
2805.90792,-0.00000
2803.97946,-0.00001
2802.05100,-0.00001
2800.12254,0.00000
2798.19408,0.00001
2796.26562,0.00001
2794.33716,0.00002
2792.40870,0.00002
2790.48024,0.00002
2788.55178,0.00002
2786.62333,0.00001
2784.69487,-0.00000
2782.76641,-0.00002
2780.83795,-0.00002
2778.90949,-0.00000
2776.98103,0.00001
2775.05257,0.00002
2773.12411,0.00002
2771.19565,0.00002
2769.26719,0.00000
2767.33874,-0.00001
2765.41028,-0.00001
2763.48182,-0.00001
2761.55336,-0.00000
2759.62490,-0.00000
2757.69644,-0.00000
2755.76798,0.00000
2753.83952,0.00001
2751.91106,0.00002
2749.98260,0.00002
2748.05414,0.00002
2746.12569,0.00001
2744.19723,0.00000
2742.26877,-0.00000
2740.34031,-0.00001
2738.41185,-0.00001
2736.48339,-0.00001
2734.55493,-0.00001
2732.62647,-0.00001
2730.69801,-0.00000
2728.76955,0.00001
2726.84110,0.00002
2724.91264,0.00002
2722.98418,0.00001
2721.05572,0.00001
2719.12726,-0.00000
2717.19880,-0.00000
2715.27034,0.00000
2713.34188,0.00001
2711.41342,0.00002
2709.48496,0.00002
2707.55650,0.00002
2705.62805,0.00002
2703.69959,0.00001
2701.77113,0.00001
2699.84267,0.00001
2697.91421,0.00001
2695.98575,0.00001
2694.05729,0.00000
2692.12883,0.00000
2690.20037,-0.00000
2688.27191,-0.00001
2686.34346,-0.00001
2684.41500,-0.00000
2682.48654,0.00000
2680.55808,0.00001
2678.62962,0.00001
2676.70116,0.00001
2674.77270,0.00001
2672.84424,-0.00000
2670.91578,-0.00000
2668.98732,-0.00001
2667.05886,-0.00001
2665.13041,-0.00000
2663.20195,-0.00000
2661.27349,-0.00000
2659.34503,-0.00000
2657.41657,-0.00000
2655.48811,-0.00000
2653.55965,-0.00000
2651.63119,0.00000
2649.70273,0.00000
2647.77427,-0.00000
2645.84582,-0.00000
2643.91736,-0.00000
2641.98890,0.00000
2640.06044,0.00001
2638.13198,0.00001
2636.20352,0.00001
2634.27506,0.00000
2632.34660,0.00000
2630.41814,-0.00000
2628.48968,-0.00000
2626.56122,-0.00000
2624.63277,-0.00000
2622.70431,-0.00000
2620.77585,-0.00000
2618.84739,-0.00000
2616.91893,0.00000
2614.99047,0.00000
2613.06201,0.00000
2611.13355,0.00000
2609.20509,-0.00000
2607.27663,-0.00000
2605.34818,-0.00000
2603.41972,-0.00000
2601.49126,-0.00000
2599.56280,-0.00000
2597.63434,0.00000
2595.70588,0.00001
2593.77742,0.00001
2591.84896,0.00001
2589.92050,0.00001
2587.99204,0.00000
2586.06358,-0.00000
2584.13513,-0.00001
2582.20667,-0.00000
2580.27821,0.00000
2578.34975,0.00001
2576.42129,0.00001
2574.49283,0.00001
2572.56437,0.00001
2570.63591,0.00000
2568.70745,-0.00000
2566.77899,-0.00000
2564.85054,-0.00000
2562.92208,-0.00000
2560.99362,-0.00000
2559.06516,0.00000
2557.13670,0.00001
2555.20824,0.00001
2553.27978,0.00000
2551.35132,-0.00000
2549.42286,-0.00001
2547.49440,-0.00000
2545.56594,0.00000
2543.63749,0.00001
2541.70903,0.00001
2539.78057,0.00001
2537.85211,0.00000
2535.92365,-0.00000
2533.99519,-0.00000
2532.06673,-0.00000
2530.13827,0.00000
2528.20981,0.00000
2526.28135,0.00000
2524.35290,0.00001
2522.42444,0.00001
2520.49598,0.00000
2518.56752,0.00000
2516.63906,0.00000
2514.71060,-0.00000
2512.78214,-0.00001
2510.85368,-0.00001
2508.92522,-0.00001
2506.99676,-0.00000
2505.06830,-0.00000
2503.13985,-0.00000
2501.21139,-0.00000
2499.28293,-0.00000
2497.35447,-0.00000
2495.42601,-0.00000
2493.49755,-0.00000
2491.56909,-0.00000
2489.64063,0.00001
2487.71217,0.00001
2485.78371,0.00001
2483.85526,0.00000
2481.92680,-0.00000
2479.99834,-0.00001
2478.06988,-0.00001
2476.14142,-0.00000
2474.21296,0.00000
2472.28450,0.00001
2470.35604,0.00001
2468.42758,0.00000
2466.49912,0.00000
2464.57066,0.00000
2462.64221,0.00000
2460.71375,0.00000
2458.78529,-0.00000
2456.85683,-0.00000
2454.92837,-0.00000
2452.99991,-0.00000
2451.07145,0.00000
2449.14299,0.00000
2447.21453,0.00000
2445.28607,-0.00000
2443.35762,-0.00000
2441.42916,-0.00000
2439.50070,-0.00000
2437.57224,0.00000
2435.64378,0.00000
2433.71532,0.00000
2431.78686,-0.00000
2429.85840,-0.00000
2427.92994,-0.00000
2426.00148,-0.00000
2424.07302,0.00000
2422.14457,0.00000
2420.21611,0.00000
2418.28765,0.00000
2416.35919,-0.00000
2414.43073,-0.00000
2412.50227,-0.00000
2410.57381,-0.00000
2408.64535,-0.00000
2406.71689,0.00000
2404.78843,0.00000
2402.85998,0.00000
2400.93152,0.00000
2399.00306,0.00000
2397.07460,0.00000
2395.14614,0.00000
2393.21768,-0.00000
2391.28922,-0.00000
2389.36076,-0.00000
2387.43230,-0.00000
2385.50384,-0.00000
2383.57538,0.00000
2381.64693,0.00000
2379.71847,0.00000
2377.79001,-0.00000
2375.86155,-0.00000
2373.93309,-0.00000
2372.00463,-0.00000
2370.07617,0.00000
2368.14771,0.00001
2366.21925,0.00002
2364.29079,0.00002
2362.36234,0.00001
2360.43388,0.00000
2358.50542,-0.00001
2356.57696,-0.00002
2354.64850,-0.00002
2352.72004,0.00000
2350.79158,0.00002
2348.86312,0.00003
2346.93466,0.00002
2345.00620,-0.00000
2343.07774,-0.00003
2341.14929,-0.00004
2339.22083,-0.00003
2337.29237,-0.00002
2335.36391,0.00000
2333.43545,0.00002
2331.50699,0.00002
2329.57853,0.00001
2327.65007,0.00000
2325.72161,-0.00001
2323.79315,-0.00001
2321.86470,-0.00001
2319.93624,-0.00000
2318.00778,0.00001
2316.07932,0.00002
2314.15086,0.00002
2312.22240,0.00002
2310.29394,0.00001
2308.36548,0.00000
2306.43702,-0.00001
2304.50856,-0.00001
2302.58010,-0.00001
2300.65165,-0.00001
2298.72319,-0.00000
2296.79473,0.00000
2294.86627,0.00000
2292.93781,0.00000
2291.00935,-0.00000
2289.08089,-0.00000
2287.15243,-0.00000
2285.22397,-0.00000
2283.29551,-0.00000
2281.36706,-0.00000
2279.43860,-0.00000
2277.51014,-0.00000
2275.58168,-0.00000
2273.65322,-0.00000
2271.72476,0.00000
2269.79630,0.00000
2267.86784,0.00001
2265.93938,0.00001
2264.01092,0.00000
2262.08246,0.00000
2260.15401,0.00000
2258.22555,0.00000
2256.29709,0.00000
2254.36863,0.00000
2252.44017,0.00000
2250.51171,0.00000
2248.58325,-0.00000
2246.65479,-0.00000
2244.72633,-0.00001
2242.79787,-0.00001
2240.86942,-0.00001
2238.94096,0.00000
2237.01250,0.00001
2235.08404,0.00002
2233.15558,0.00002
2231.22712,0.00001
2229.29866,-0.00000
2227.37020,-0.00001
2225.44174,-0.00002
2223.51328,-0.00002
2221.58482,-0.00001
2219.65637,-0.00000
2217.72791,0.00000
2215.79945,0.00001
2213.87099,0.00000
2211.94253,-0.00000
2210.01407,-0.00000
2208.08561,0.00001
2206.15715,0.00002
2204.22869,0.00001
2202.30023,0.00000
2200.37177,-0.00001
2198.44332,-0.00002
2196.51486,-0.00001
2194.58640,0.00000
2192.65794,0.00002
2190.72948,0.00002
2188.80102,0.00002
2186.87256,-0.00000
2184.94410,-0.00003
2183.01564,-0.00006
2181.08718,-0.00006
2179.15873,-0.00004
2177.23027,-0.00001
2175.30181,0.00002
2173.37335,0.00002
2171.44489,-0.00001
2169.51643,-0.00006
2167.58797,-0.00009
2165.65951,-0.00006
2163.73105,0.00003
2161.80259,0.00014
2159.87413,0.00019
2157.94568,0.00018
2156.01722,0.00012
2154.08876,0.00004
2152.16030,-0.00003
2150.23184,-0.00005
2148.30338,-0.00004
2146.37492,-0.00002
2144.44646,-0.00001
2142.51800,-0.00001
2140.58954,-0.00000
2138.66109,0.00000
2136.73263,0.00001
2134.80417,0.00001
2132.87571,-0.00000
2130.94725,-0.00002
2129.01879,-0.00004
2127.09033,-0.00004
2125.16187,-0.00004
2123.23341,-0.00003
2121.30495,-0.00002
2119.37649,-0.00002
2117.44804,-0.00002
2115.51958,-0.00002
2113.59112,-0.00001
2111.66266,-0.00000
2109.73420,0.00000
2107.80574,0.00000
2105.87728,-0.00000
2103.94882,-0.00000
2102.02036,-0.00000
2100.09190,0.00000
2098.16345,0.00000
2096.23499,0.00000
2094.30653,-0.00000
2092.37807,-0.00001
2090.44961,-0.00001
2088.52115,-0.00001
2086.59269,-0.00001
2084.66423,-0.00001
2082.73577,-0.00001
2080.80731,-0.00000
2078.87885,-0.00001
2076.95040,-0.00001
2075.02194,-0.00002
2073.09348,-0.00002
2071.16502,-0.00002
2069.23656,-0.00001
2067.30810,0.00000
2065.37964,0.00001
2063.45118,0.00000
2061.52272,-0.00001
2059.59426,-0.00003
2057.66581,-0.00004
2055.73735,-0.00004
2053.80889,-0.00004
2051.88043,-0.00002
2049.95197,-0.00000
2048.02351,0.00002
2046.09505,0.00003
2044.16659,0.00003
2042.23813,0.00002
2040.30967,-0.00000
2038.38121,-0.00001
2036.45276,-0.00000
2034.52430,0.00001
2032.59584,0.00003
2030.66738,0.00005
2028.73892,0.00006
2026.81046,0.00006
2024.88200,0.00004
2022.95354,0.00002
2021.02508,0.00001
2019.09662,-0.00000
2017.16817,-0.00001
2015.23971,0.00000
2013.31125,0.00002
2011.38279,0.00003
2009.45433,0.00004
2007.52587,0.00004
2005.59741,0.00003
2003.66895,-0.00000
2001.74049,-0.00003
1999.81203,-0.00005
1997.88357,-0.00006
1995.95512,-0.00005
1994.02666,-0.00004
1992.09820,-0.00003
1990.16974,-0.00003
1988.24128,-0.00004
1986.31282,-0.00004
1984.38436,-0.00004
1982.45590,-0.00001
1980.52744,0.00002
1978.59898,0.00005
1976.67053,0.00008
1974.74207,0.00008
1972.81361,0.00007
1970.88515,0.00005
1968.95669,0.00003
1967.02823,0.00002
1965.09977,0.00001
1963.17131,0.00000
1961.24285,-0.00001
1959.31439,-0.00001
1957.38593,-0.00002
1955.45748,-0.00003
1953.52902,-0.00004
1951.60056,-0.00004
1949.67210,-0.00003
1947.74364,-0.00002
1945.81518,-0.00000
1943.88672,0.00000
1941.95826,0.00001
1940.02980,0.00001
1938.10134,0.00001
1936.17289,0.00001
1934.24443,0.00000
1932.31597,-0.00001
1930.38751,-0.00002
1928.45905,-0.00002
1926.53059,-0.00001
1924.60213,-0.00000
1922.67367,0.00001
1920.74521,0.00001
1918.81675,0.00001
1916.88829,0.00000
1914.95984,-0.00000
1913.03138,-0.00001
1911.10292,-0.00000
1909.17446,0.00000
1907.24600,0.00000
1905.31754,-0.00000
1903.38908,-0.00000
1901.46062,-0.00001
1899.53216,-0.00001
1897.60370,-0.00001
1895.67525,-0.00000
1893.74679,0.00000
1891.81833,0.00001
1889.88987,0.00001
1887.96141,0.00000
1886.03295,-0.00000
1884.10449,-0.00001
1882.17603,-0.00001
1880.24757,-0.00001
1878.31911,-0.00001
1876.39065,0.00000
1874.46220,0.00001
1872.53374,0.00001
1870.60528,0.00001
1868.67682,0.00000
1866.74836,0.00000
1864.81990,0.00000
1862.89144,0.00000
1860.96298,0.00001
1859.03452,0.00001
1857.10606,0.00001
1855.17761,0.00000
1853.24915,-0.00000
1851.32069,-0.00000
1849.39223,-0.00000
1847.46377,0.00000
1845.53531,0.00000
1843.60685,0.00000
1841.67839,0.00000
1839.74993,0.00000
1837.82147,0.00000
1835.89301,0.00000
1833.96456,0.00000
1832.03610,0.00000
1830.10764,-0.00000
1828.17918,-0.00000
1826.25072,-0.00000
1824.32226,-0.00000
1822.39380,0.00000
1820.46534,0.00000
1818.53688,0.00000
1816.60842,0.00000
1814.67997,0.00000
1812.75151,-0.00000
1810.82305,-0.00001
1808.89459,-0.00001
1806.96613,-0.00001
1805.03767,-0.00000
1803.10921,0.00000
1801.18075,0.00001
1799.25229,0.00000
1797.32383,0.00000
1795.39537,-0.00000
1793.46692,-0.00000
1791.53846,-0.00000
1789.61000,-0.00000
1787.68154,-0.00000
1785.75308,0.00000
1783.82462,0.00000
1781.89616,0.00001
1779.96770,0.00001
1778.03924,0.00001
1776.11078,0.00000
1774.18233,-0.00000
1772.25387,-0.00000
1770.32541,0.00001
1768.39695,0.00002
1766.46849,0.00004
1764.54003,0.00006
1762.61157,0.00007
1760.68311,0.00008
1758.75465,0.00008
1756.82619,0.00009
1754.89773,0.00009
1752.96928,0.00007
1751.04082,0.00004
1749.11236,0.00001
1747.18390,-0.00003
1745.25544,-0.00006
1743.32698,-0.00008
1741.39852,-0.00010
1739.47006,-0.00011
1737.54160,-0.00011
1735.61314,-0.00009
1733.68469,-0.00006
1731.75623,-0.00001
1729.82777,0.00004
1727.89931,0.00011
1725.97085,0.00017
1724.04239,0.00024
1722.11393,0.00028
1720.18547,0.00029
1718.25701,0.00029
1716.32855,0.00030
1714.40009,0.00034
1712.47164,0.00045
1710.54318,0.00063
1708.61472,0.00087
1706.68626,0.00115
1704.75780,0.00139
1702.82934,0.00149
1700.90088,0.00136
1698.97242,0.00102
1697.04396,0.00060
1695.11550,0.00027
1693.18705,0.00018
1691.25859,0.00032
1689.33013,0.00050
1687.40167,0.00052
1685.47321,0.00032
1683.54475,0.00007
1681.61629,-0.00006
1679.68783,0.00006
1677.75937,0.00043
1675.83091,0.00088
1673.90245,0.00117
1671.97400,0.00124
1670.04554,0.00120
1668.11708,0.00109
1666.18862,0.00090
1664.26016,0.00067
1662.33170,0.00050
1660.40324,0.00037
1658.47478,0.00009
1656.54632,-0.00042
1654.61786,-0.00105
1652.68941,-0.00169
1650.76095,-0.00220
1648.83249,-0.00237
1646.90403,-0.00211
1644.97557,-0.00161
1643.04711,-0.00127
1641.11865,-0.00132
1639.19019,-0.00175
1637.26173,-0.00248
1635.33327,-0.00332
1633.40481,-0.00402
1631.47636,-0.00436
1629.54790,-0.00420
1627.61944,-0.00360
1625.69098,-0.00276
1623.76252,-0.00192
1621.83406,-0.00116
1619.90560,-0.00051
1617.97714,0.00000
1616.04868,0.00040
1614.12022,0.00075
1612.19177,0.00110
1610.26331,0.00141
1608.33485,0.00167
1606.40639,0.00190
1604.47793,0.00207
1602.54947,0.00210
1600.62101,0.00198
1598.69255,0.00177
1596.76409,0.00156
1594.83563,0.00138
1592.90717,0.00126
1590.97872,0.00119
1589.05026,0.00114
1587.12180,0.00110
1585.19334,0.00107
1583.26488,0.00105
1581.33642,0.00101
1579.40796,0.00095
1577.47950,0.00087
1575.55104,0.00079
1573.62258,0.00069
1571.69412,0.00063
1569.76567,0.00070
1567.83721,0.00100
1565.90875,0.00150
1563.98029,0.00197
1562.05183,0.00216
1560.12337,0.00193
1558.19491,0.00135
1556.26645,0.00059
1554.33799,-0.00011
1552.40953,-0.00057
1550.48108,-0.00080
1548.55262,-0.00102
1546.62416,-0.00140
1544.69570,-0.00195
1542.76724,-0.00254
1540.83878,-0.00303
1538.91032,-0.00327
1536.98186,-0.00316
1535.05340,-0.00274
1533.12494,-0.00214
1531.19648,-0.00155
1529.26803,-0.00101
1527.33957,-0.00055
1525.41111,-0.00019
1523.48265,-0.00001
1521.55419,-0.00012
1519.62573,-0.00060
1517.69727,-0.00141
1515.76881,-0.00240
1513.84035,-0.00319
1511.91189,-0.00326
1509.98344,-0.00245
1508.05498,-0.00106
1506.12652,0.00034
1504.19806,0.00128
1502.26960,0.00155
1500.34114,0.00126
1498.41268,0.00075
1496.48422,0.00045
1494.55576,0.00052
1492.62730,0.00084
1490.69884,0.00128
1488.77039,0.00174
1486.84193,0.00218
1484.91347,0.00252
1482.98501,0.00268
1481.05655,0.00264
1479.12809,0.00241
1477.19963,0.00198
1475.27117,0.00134
1473.34271,0.00060
1471.41425,-0.00006
1469.48580,-0.00044
1467.55734,-0.00045
1465.62888,-0.00016
1463.70042,0.00018
1461.77196,0.00030
1459.84350,0.00010
1457.91504,-0.00034
1455.98658,-0.00080
1454.05812,-0.00111
1452.12966,-0.00116
1450.20120,-0.00097
1448.27275,-0.00073
1446.34429,-0.00060
1444.41583,-0.00063
1442.48737,-0.00074
1440.55891,-0.00079
1438.63045,-0.00066
1436.70199,-0.00033
1434.77353,0.00017
1432.84507,0.00071
1430.91661,0.00115
1428.98816,0.00138
1427.05970,0.00140
1425.13124,0.00127
1423.20278,0.00104
1421.27432,0.00080
1419.34586,0.00063
1417.41740,0.00056
1415.48894,0.00056
1413.56048,0.00058
1411.63202,0.00052
1409.70356,0.00031
1407.77511,-0.00005
1405.84665,-0.00052
1403.91819,-0.00099
1401.98973,-0.00138
1400.06127,-0.00160
1398.13281,-0.00163
1396.20435,-0.00153
1394.27589,-0.00138
1392.34743,-0.00121
1390.41897,-0.00104
1388.49052,-0.00086
1386.56206,-0.00065
1384.63360,-0.00037
1382.70514,-0.00004
1380.77668,0.00030
1378.84822,0.00059
1376.91976,0.00078
1374.99130,0.00083
1373.06284,0.00074
1371.13438,0.00055
1369.20592,0.00035
1367.27747,0.00021
1365.34901,0.00019
1363.42055,0.00027
1361.49209,0.00037
1359.56363,0.00043
1357.63517,0.00043
1355.70671,0.00037
1353.77825,0.00028
1351.84979,0.00019
1349.92133,0.00009
1347.99288,0.00000
1346.06442,-0.00008
1344.13596,-0.00014
1342.20750,-0.00015
1340.27904,-0.00009
1338.35058,0.00003
1336.42212,0.00019
1334.49366,0.00036
1332.56520,0.00049
1330.63674,0.00057
1328.70828,0.00057
1326.77983,0.00049
1324.85137,0.00033
1322.92291,0.00012
1320.99445,-0.00011
1319.06599,-0.00033
1317.13753,-0.00049
1315.20907,-0.00058
1313.28061,-0.00059
1311.35215,-0.00052
1309.42369,-0.00042
1307.49524,-0.00029
1305.56678,-0.00018
1303.63832,-0.00009
1301.70986,-0.00003
1299.78140,0.00002
1297.85294,0.00005
1295.92448,0.00006
1293.99602,0.00005
1292.06756,0.00002
1290.13910,0.00000
1288.21064,-0.00002
1286.28219,-0.00002
1284.35373,0.00000
1282.42527,0.00004
1280.49681,0.00008
1278.56835,0.00013
1276.63989,0.00017
1274.71143,0.00020
1272.78297,0.00020
1270.85451,0.00020
1268.92605,0.00018
1266.99760,0.00017
1265.06914,0.00018
1263.14068,0.00020
1261.21222,0.00023
1259.28376,0.00026
1257.35530,0.00028
1255.42684,0.00027
1253.49838,0.00021
1251.56992,0.00011
1249.64146,-0.00003
1247.71300,-0.00020
1245.78455,-0.00037
1243.85609,-0.00053
1241.92763,-0.00065
1239.99917,-0.00074
1238.07071,-0.00079
1236.14225,-0.00081
1234.21379,-0.00080
1232.28533,-0.00077
1230.35687,-0.00069
1228.42841,-0.00059
1226.49996,-0.00045
1224.57150,-0.00029
1222.64304,-0.00011
1220.71458,0.00007
1218.78612,0.00023
1216.85766,0.00037
1214.92920,0.00045
1213.00074,0.00048
1211.07228,0.00044
1209.14382,0.00037
1207.21536,0.00029
1205.28691,0.00023
1203.35845,0.00021
1201.42999,0.00022
1199.50153,0.00024
1197.57307,0.00025
1195.64461,0.00023
1193.71615,0.00019
1191.78769,0.00017
1189.85923,0.00020
1187.93077,0.00030
1186.00232,0.00046
1184.07386,0.00063
1182.14540,0.00073
1180.21694,0.00067
1178.28848,0.00042
1176.36002,0.00005
1174.43156,-0.00034
1172.50310,-0.00060
1170.57464,-0.00067
1168.64618,-0.00057
1166.71772,-0.00040
1164.78927,-0.00024
1162.86081,-0.00015
1160.93235,-0.00015
1159.00389,-0.00018
1157.07543,-0.00021
1155.14697,-0.00022
1153.21851,-0.00020
1151.29005,-0.00014
1149.36159,-0.00002
1147.43313,0.00013
1145.50468,0.00030
1143.57622,0.00045
1141.64776,0.00056
1139.71930,0.00061
1137.79084,0.00059
1135.86238,0.00049
1133.93392,0.00032
1132.00546,0.00011
1130.07700,-0.00009
1128.14854,-0.00022
1126.22008,-0.00027
1124.29163,-0.00024
1122.36317,-0.00019
1120.43471,-0.00014
1118.50625,-0.00010
1116.57779,-0.00008
1114.64933,-0.00006
1112.72087,-0.00005
1110.79241,-0.00006
1108.86395,-0.00009
1106.93549,-0.00013
1105.00704,-0.00014
1103.07858,-0.00010
1101.15012,-0.00000
1099.22166,0.00014
1097.29320,0.00030
1095.36474,0.00044
1093.43628,0.00053
1091.50782,0.00055
1089.57936,0.00046
1087.65090,0.00028
1085.72244,0.00001
1083.79399,-0.00029
1081.86553,-0.00055
1079.93707,-0.00070
1078.00861,-0.00074
1076.08015,-0.00067
1074.15169,-0.00054
1072.22323,-0.00038
1070.29477,-0.00022
1068.36631,-0.00008
1066.43785,0.00004
1064.50940,0.00013
1062.58094,0.00018
1060.65248,0.00018
1058.72402,0.00015
1056.79556,0.00010
1054.86710,0.00006
1052.93864,0.00004
1051.01018,0.00003
1049.08172,0.00003
1047.15326,0.00002
1045.22480,0.00000
1043.29635,-0.00002
1041.36789,-0.00005
1039.43943,-0.00010
1037.51097,-0.00019
1035.58251,-0.00032
1033.65405,-0.00047
1031.72559,-0.00057
1029.79713,-0.00056
1027.86867,-0.00044
1025.94021,-0.00022
1024.01176,0.00001
1022.08330,0.00019
1020.15484,0.00027
1018.22638,0.00025
1016.29792,0.00017
1014.36946,0.00008
1012.44100,0.00001
1010.51254,0.00001
1008.58408,0.00006
1006.65562,0.00015
1004.72716,0.00025
1002.79871,0.00032
1000.87025,0.00033
998.94179,0.00029
997.01333,0.00022
995.08487,0.00013
993.15641,0.00003
991.22795,-0.00005
989.29949,-0.00009
987.37103,-0.00010
985.44257,-0.00007
983.51412,-0.00002
981.58566,0.00004
979.65720,0.00008
977.72874,0.00010
975.80028,0.00010
973.87182,0.00008
971.94336,0.00005
970.01490,0.00004
968.08644,0.00005
966.15798,0.00007
964.22952,0.00010
962.30107,0.00012
960.37261,0.00012
958.44415,0.00012
956.51569,0.00011
954.58723,0.00011
952.65877,0.00011
950.73031,0.00013
948.80185,0.00015
946.87339,0.00016
944.94493,0.00015
943.01647,0.00010
941.08802,0.00002
939.15956,-0.00008
937.23110,-0.00017
935.30264,-0.00023
933.37418,-0.00025
931.44572,-0.00025
929.51726,-0.00022
927.58880,-0.00019
925.66034,-0.00016
923.73188,-0.00013
921.80343,-0.00008
919.87497,-0.00001
917.94651,0.00007
916.01805,0.00014
914.08959,0.00018
912.16113,0.00019
910.23267,0.00018
908.30421,0.00014
906.37575,0.00009
904.44729,0.00004
902.51883,-0.00001
900.59038,-0.00006
898.66192,-0.00008
896.73346,-0.00008
894.80500,-0.00004
892.87654,0.00001
890.94808,0.00007
889.01962,0.00009
887.09116,0.00009
885.16270,0.00006
883.23424,0.00001
881.30579,-0.00005
879.37733,-0.00010
877.44887,-0.00013
875.52041,-0.00012
873.59195,-0.00006
871.66349,-0.00000
869.73503,0.00005
867.80657,0.00007
865.87811,0.00009
863.94965,0.00011
862.02119,0.00013
860.09274,0.00014
858.16428,0.00012
856.23582,0.00006
854.30736,-0.00002
852.37890,-0.00008
850.45044,-0.00008
848.52198,-0.00002
846.59352,0.00004
844.66506,0.00008
842.73660,0.00006
840.80815,-0.00001
838.87969,-0.00010
836.95123,-0.00018
835.02277,-0.00023
833.09431,-0.00024
831.16585,-0.00020
829.23739,-0.00014
827.30893,-0.00007
825.38047,-0.00000
823.45201,0.00005
821.52355,0.00008
819.59510,0.00009
817.66664,0.00009
815.73818,0.00008
813.80972,0.00007
811.88126,0.00007
809.95280,0.00006
808.02434,0.00004
806.09588,0.00003
804.16742,0.00002
802.23896,0.00001
800.31051,0.00000
798.38205,0.00000
796.45359,0.00001
794.52513,0.00002
792.59667,0.00004
790.66821,0.00004
788.73975,0.00004
786.81129,0.00001
784.88283,-0.00002
782.95437,-0.00004
781.02591,-0.00006
779.09746,-0.00006
777.16900,-0.00005
775.24054,-0.00004
773.31208,-0.00002
771.38362,-0.00001
769.45516,0.00000
767.52670,0.00002
765.59824,0.00004
763.66978,0.00008
761.74132,0.00012
759.81287,0.00017
757.88441,0.00022
755.95595,0.00026
754.02749,0.00025
752.09903,0.00016
750.17057,-0.00001
748.24211,-0.00024
746.31365,-0.00045
744.38519,-0.00057
742.45673,-0.00056
740.52827,-0.00042
738.59982,-0.00021
736.67136,0.00001
734.74290,0.00019
732.81444,0.00028
730.88598,0.00029
728.95752,0.00023
727.02906,0.00015
725.10060,0.00007
723.17214,0.00002
721.24368,0.00000
719.31523,0.00000
717.38677,0.00000
715.45831,0.00000
713.52985,0.00005
711.60139,0.00013
709.67293,0.00016
707.74447,0.00008
705.81601,-0.00012
703.88755,-0.00012
701.95909,-0.00012
700.03063,-0.00012
698.10218,-0.00012
